HRV_ULF,HRV_VLF,HRV_LF,HRV_HF,HRV_VHF,HRV_TP,HRV_LFHF,HRV_LFn,HRV_HFn,HRV_LnHF,time
,,0.01168581175505161,0.04382527013860503,0.001500485671915447,0.05701156756557209,0.2666455156601021,0.20497264422015982,0.7687083869111162,-3.127544684164058,0.0
,,0.01168581175505161,0.04382527013860503,0.001500485671915447,0.05701156756557209,0.2666455156601021,0.20497264422015982,0.7687083869111162,-3.127544684164058,0.1
,,0.01168581175505161,0.04382527013860503,0.001500485671915447,0.05701156756557209,0.2666455156601021,0.20497264422015982,0.7687083869111162,-3.127544684164058,0.2
,,0.01168581175505161,0.04382527013860503,0.001500485671915447,0.05701156756557209,0.2666455156601021,0.20497264422015982,0.7687083869111162,-3.127544684164058,0.3
,,0.01138724212676243,0.04271327813842164,0.0015581181168920015,0.05565863838207607,0.2666358608263818,0.20459074202629973,0.7674150748211034,-3.1532454436575863,0.4
,,0.01138724212676243,0.04271327813842164,0.0015581181168920015,0.05565863838207607,0.2666294242705683,0.20459074202629973,0.7674150748211034,-3.1532454436575863,0.5
,,0.01138724212676243,0.04271327813842164,0.0015581181168920015,0.05565863838207607,0.2666248267307015,0.20459074202629973,0.7674150748211034,-3.1532454436575863,0.6
,,0.01138724212676243,0.04271327813842164,0.0015581181168920015,0.05565863838207607,0.26662137857580137,0.20459074202629973,0.7674150748211034,-3.1532454436575863,0.7
,,0.012480804884538604,0.041578222237691385,0.0015024220200724695,0.05556144914230245,0.27034972448411665,0.22463065807684587,0.748328614165595,-3.180178752692578,0.8
,,0.012480804884538604,0.041578222237691385,0.0015024220200724695,0.05556144914230245,0.27333240121076885,0.22463065807684587,0.748328614165595,-3.180178752692578,0.9
,,0.012480804884538604,0.041578222237691385,0.0015024220200724695,0.05556144914230245,0.27577277307802983,0.22463065807684587,0.748328614165595,-3.180178752692578,1.0
,,0.012480804884538604,0.041578222237691385,0.0015024220200724695,0.05556144914230245,0.27780641630074726,0.22463065807684587,0.748328614165595,-3.180178752692578,1.1
,,,0.035065116601654914,0.002147584546362444,0.037212701148017356,0.27780641630074726,,0.9422889368385218,-3.3505484716984952,1.2
,,,0.035065116601654914,0.002147584546362444,0.037212701148017356,0.27780641630074726,,0.9422889368385218,-3.3505484716984952,1.3
,,,0.035065116601654914,0.002147584546362444,0.037212701148017356,0.27780641630074726,,0.9422889368385218,-3.3505484716984952,1.4
,,,0.035065116601654914,0.002147584546362444,0.037212701148017356,0.27780641630074726,,0.9422889368385218,-3.3505484716984952,1.5
,,,0.035065116601654914,0.002147584546362444,0.037212701148017356,0.27780641630074726,,0.9422889368385218,-3.3505484716984952,1.6
,,0.01527587672292869,0.03631345288943877,0.0021585968934687795,0.053747926505836235,0.288795703485651,0.28421332162962515,0.6756251868710816,-3.315567003352825,1.7
,,0.01527587672292869,0.03631345288943877,0.0021585968934687795,0.053747926505836235,0.2982150925012827,0.28421332162962515,0.6756251868710816,-3.315567003352825,1.8
,,0.01527587672292869,0.03631345288943877,0.0021585968934687795,0.053747926505836235,0.3063785629814969,0.28421332162962515,0.6756251868710816,-3.315567003352825,1.9
,,0.01527587672292869,0.03631345288943877,0.0021585968934687795,0.053747926505836235,0.31352159965168436,0.28421332162962515,0.6756251868710816,-3.315567003352825,2.0
,,,0.04171877526762767,0.0024912637385667994,0.04421003900619447,0.31352159965168436,,0.9436493657420719,-3.1768040052817157,2.1
,,,0.04171877526762767,0.0024912637385667994,0.04421003900619447,0.31352159965168436,,0.9436493657420719,-3.1768040052817157,2.2
,,,0.04171877526762767,0.0024912637385667994,0.04421003900619447,0.31352159965168436,,0.9436493657420719,-3.1768040052817157,2.3
,,,0.04171877526762767,0.0024912637385667994,0.04421003900619447,0.31352159965168436,,0.9436493657420719,-3.1768040052817157,2.4
,,0.013297453190446708,0.04124782215877297,0.0018064717375508533,0.05635174708677053,0.3140426539065556,0.2359723323213256,0.731970600578887,-3.188156963746171,2.5
,,0.013297453190446708,0.04124782215877297,0.0018064717375508533,0.05635174708677053,0.3145058132442189,0.2359723323213256,0.731970600578887,-3.188156963746171,2.6
,,0.013297453190446708,0.04124782215877297,0.0018064717375508533,0.05635174708677053,0.31492021896739136,0.2359723323213256,0.731970600578887,-3.188156963746171,2.7
,,0.013297453190446708,0.04124782215877297,0.0018064717375508533,0.05635174708677053,0.3152931841182466,0.2359723323213256,0.731970600578887,-3.188156963746171,2.8
,,0.01260919154032132,0.043391078531974075,0.0021598635365881113,0.05816013360888351,0.31411703739407176,0.2168012822170574,0.7460622223423921,-3.1375014227863067,2.9
,,0.01260919154032132,0.043391078531974075,0.0021598635365881113,0.05816013360888351,0.31304781309936736,0.2168012822170574,0.7460622223423921,-3.1375014227863067,3.0
,,0.01260919154032132,0.043391078531974075,0.0021598635365881113,0.05816013360888351,0.3120715648302894,0.2168012822170574,0.7460622223423921,-3.1375014227863067,3.1
,,0.01260919154032132,0.043391078531974075,0.0021598635365881113,0.05816013360888351,0.3111766705836347,0.2168012822170574,0.7460622223423921,-3.1375014227863067,3.2
,,0.01260919154032132,0.043391078531974075,0.0021598635365881113,0.05816013360888351,0.31035336787671225,0.2168012822170574,0.7460622223423921,-3.1375014227863067,3.3
,,0.013009845045480377,0.04359711941383279,0.002123811880884045,0.05873077634019721,0.3098940328411321,0.2215166537237824,0.7423215242600758,-3.132764199299841,3.4
,,0.013009845045480377,0.04359711941383279,0.002123811880884045,0.05873077634019721,0.30946872262300223,0.2215166537237824,0.7423215242600758,-3.132764199299841,3.5
,,0.021334298748453027,0.06807539707278154,0.003982741779907449,0.09339243760114202,0.3096088469692474,0.22843711221637658,0.728917659944975,-2.687139407567029,3.6
,,0.013009845045480377,0.04359711941383279,0.002123811880884045,0.05873077634019721,0.3092227024858812,0.2215166537237824,0.7423215242600758,-3.132764199299841,3.7
,,0.020671547647532304,0.06802962164913895,0.004024392536774812,0.09272556183344606,0.3090439784736719,0.22293256831015595,0.7336663192328127,-2.6878120561702676,3.8
,,0.020671547647532304,0.06802962164913895,0.004024392536774812,0.09272556183344606,0.30887678504289545,0.22293256831015595,0.7336663192328127,-2.6878120561702676,3.9
,,0.020671547647532304,0.06802962164913895,0.004024392536774812,0.09272556183344606,0.3087200412015425,0.22293256831015595,0.7336663192328127,-2.6878120561702676,4.0
,,0.020671547647532304,0.06802962164913895,0.004024392536774812,0.09272556183344606,0.30857279698693824,0.22293256831015595,0.7336663192328127,-2.6878120561702676,4.1
,,0.020671547647532304,0.06802962164913895,0.004024392536774812,0.09272556183344606,0.30843421419672246,0.22293256831015595,0.7336663192328127,-2.6878120561702676,4.2
,,0.012098549838361486,0.04709445478710486,0.00247259298764046,0.061665597613106804,0.30696179861470985,0.19619610133787113,0.7637071010416203,-3.055600017648669,4.3
,,0.012098549838361486,0.04709445478710486,0.00247259298764046,0.061665597613106804,0.30557118389836463,0.19619610133787113,0.7637071010416203,-3.055600017648669,4.4
,,0.012098549838361486,0.04709445478710486,0.00247259298764046,0.061665597613106804,0.3042557375450651,0.19619610133787113,0.7637071010416203,-3.055600017648669,4.5
,,0.010736803829497646,0.04909641992824806,0.0028421876637599076,0.06267541142150561,0.3020039581663535,0.17130807099598172,0.783344198541659,-3.013969160724977,4.6
,,0.012098549838361486,0.04709445478710486,0.00247259298764046,0.061665597613106804,0.3008474379268644,0.19619610133787113,0.7637071010416203,-3.055600017648669,4.7
,,0.017118632557149103,0.07039904478725084,0.004072370597392356,0.09159004794179229,0.29940539431964447,0.1869049415502917,0.7686320333841418,-2.6535755842731055,4.8
,,0.017118632557149103,0.07039904478725084,0.004072370597392356,0.09159004794179229,0.29803369430302057,0.1869049415502917,0.7686320333841418,-2.6535755842731055,4.9
,,0.017118632557149103,0.07039904478725084,0.004072370597392356,0.09159004794179229,0.29672731333480734,0.1869049415502917,0.7686320333841418,-2.6535755842731055,5.0
,,0.017118632557149103,0.07039904478725084,0.004072370597392356,0.09159004794179229,0.2954816942720924,0.1869049415502917,0.7686320333841418,-2.6535755842731055,5.1
,,0.017118632557149103,0.07039904478725084,0.004072370597392356,0.09159004794179229,0.2942926942576828,0.1869049415502917,0.7686320333841418,-2.6535755842731055,5.2
,,0.009986550057984569,0.04857904114882233,0.002668355839779481,0.061233947046586384,0.2923211504513945,0.16308845892927443,0.793335126867842,-3.024563093173456,5.3
,,0.009986550057984569,0.04857904114882233,0.002668355839779481,0.061233947046586384,0.2904353259410319,0.16308845892927443,0.793335126867842,-3.024563093173456,5.4
,,0.009986550057984569,0.04857904114882233,0.002668355839779481,0.061233947046586384,0.288629749282174,0.16308845892927443,0.793335126867842,-3.024563093173456,5.5
,,,0.05141009563181004,0.003026969460046806,0.05443706509185684,0.288629749282174,,0.9443950651097903,-2.967920712737305,5.6
,,0.009986550057984569,0.04857904114882233,0.002668355839779481,0.061233947046586384,0.2868994049841019,0.16308845892927443,0.793335126867842,-3.024563093173456,5.7
,,0.008817255656761563,0.05212984844612835,0.003102402083750519,0.06404950618664043,0.2844961569459556,0.13766313250047638,0.8138993030519522,-2.9540175874358066,5.8
,,0.008817255656761563,0.05212984844612835,0.003102402083750519,0.06404950618664043,0.28218903882933516,0.13766313250047638,0.8138993030519522,-2.9540175874358066,5.9
,,0.008817255656761563,0.05212984844612835,0.003102402083750519,0.06404950618664043,0.2799723959329743,0.13766313250047638,0.8138993030519522,-2.9540175874358066,6.0
,,0.008817255656761563,0.05212984844612835,0.003102402083750519,0.06404950618664043,0.2778410085326274,0.13766313250047638,0.8138993030519522,-2.9540175874358066,6.1
,,0.008817255656761563,0.05212984844612835,0.003102402083750519,0.06404950618664043,0.27579005084550107,0.13766313250047638,0.8138993030519522,-2.9540175874358066,6.2
,,0.008495439568271384,0.051729237185013065,0.00284162311244405,0.0630662998657285,0.2737241049849991,0.13470648486368514,0.8202358041481324,-2.961732141160629,6.3
,,0.008495439568271384,0.051729237185013065,0.00284162311244405,0.0630662998657285,0.27173328442851535,0.13470648486368514,0.8202358041481324,-2.961732141160629,6.4
,,,0.054779126941393655,0.003125786722776065,0.05790491366416972,0.27173328442851535,,0.9460186273499233,-2.9044460528172236,6.5
,,0.008495439568271384,0.051729237185013065,0.00284162311244405,0.0630662998657285,0.26981356460619177,0.13470648486368514,0.8202358041481324,-2.961732141160629,6.6
,,0.007937639821954431,0.0554460558660354,0.0031813800787796435,0.06656507576676947,0.2675915666961138,0.11924631243215755,0.8329601555672698,-2.89234469727311,6.7
,,0.007937639821954431,0.0554460558660354,0.0031813800787796435,0.06656507576676947,0.2654461894036247,0.11924631243215755,0.8329601555672698,-2.89234469727311,6.8
,,0.007937639821954431,0.0554460558660354,0.0031813800787796435,0.06656507576676947,0.2633735367651183,0.11924631243215755,0.8329601555672698,-2.89234469727311,6.9
,,0.007937639821954431,0.0554460558660354,0.0031813800787796435,0.06656507576676947,0.26136997254789546,0.11924631243215755,0.8329601555672698,-2.89234469727311,7.0
,,0.007937639821954431,0.0554460558660354,0.0031813800787796435,0.06656507576676947,0.2594320989607455,0.11924631243215755,0.8329601555672698,-2.89234469727311,7.1
,,0.008015468472592274,0.05551088362090461,0.0029119248182235304,0.06643827691172041,0.25757665445183625,0.12064533948167853,0.8355256367449816,-2.8911761761775296,7.2
,,0.008015468472592274,0.05551088362090461,0.0029119248182235304,0.06643827691172041,0.25578011294320985,0.12064533948167853,0.8355256367449816,-2.8911761761775296,7.3
,,0.008015468472592274,0.05551088362090461,0.0029119248182235304,0.06643827691172041,0.25403971335672804,0.12064533948167853,0.8355256367449816,-2.8911761761775296,7.4
,,0.00810522241574861,0.05909314579331426,0.003142736585085629,0.0703411047941485,0.2522415656227994,0.11522739711678318,0.8400940810675194,-2.8286403377203326,7.5
,,0.00810522241574861,0.05909314579331426,0.003142736585085629,0.0703411047941485,0.25049790721414145,0.11522739711678318,0.8400940810675194,-2.8286403377203326,7.6
,,0.00810522241574861,0.05909314579331426,0.003142736585085629,0.0703411047941485,0.24880629831021953,0.11522739711678318,0.8400940810675194,-2.8286403377203326,7.7
,,0.00810522241574861,0.05909314579331426,0.003142736585085629,0.0703411047941485,0.2471644426093541,0.11522739711678318,0.8400940810675194,-2.8286403377203326,7.8
,,0.00810522241574861,0.05909314579331426,0.003142736585085629,0.0703411047941485,0.2455701769288036,0.11522739711678318,0.8400940810675194,-2.8286403377203326,7.9
,,0.00810522241574861,0.05909314579331426,0.003142736585085629,0.0703411047941485,0.24402146169626887,0.11522739711678318,0.8400940810675194,-2.8286403377203326,8.0
,,0.008690376875496559,0.05907319153287561,0.0028745141852889746,0.07063808259366114,0.24265654006359894,0.12302679456189554,0.8362796577122362,-2.8289780694479947,8.1
,,0.008690376875496559,0.05907319153287561,0.0028745141852889746,0.07063808259366114,0.24132953292072537,0.12302679456189554,0.8362796577122362,-2.8289780694479947,8.2
,,0.009401639761975927,0.06265933405725439,0.003007067977733219,0.07506804179696354,0.24007904237371852,0.12524157466907865,0.8347005271128429,-2.7700426213911333,8.3
,,0.009401639761975927,0.06265933405725439,0.003007067977733219,0.07506804179696354,0.23886234886852264,0.12524157466907865,0.8347005271128429,-2.7700426213911333,8.4
,,0.009401639761975927,0.06265933405725439,0.003007067977733219,0.07506804179696354,0.23767810052346533,0.12524157466907865,0.8347005271128429,-2.7700426213911333,8.5
,,0.009401639761975927,0.06265933405725439,0.003007067977733219,0.07506804179696354,0.2365250166085411,0.12524157466907865,0.8347005271128429,-2.7700426213911333,8.6
,,0.009401639761975927,0.06265933405725439,0.003007067977733219,0.07506804179696354,0.23540188292517336,0.12524157466907865,0.8347005271128429,-2.7700426213911333,8.7
,,0.009401639761975927,0.06265933405725439,0.003007067977733219,0.07506804179696354,0.23430754754137914,0.12524157466907865,0.8347005271128429,-2.7700426213911333,8.8
,,0.009401639761975927,0.06265933405725439,0.003007067977733219,0.07506804179696354,0.23324091685084553,0.12524157466907865,0.8347005271128429,-2.7700426213911333,8.9
,,0.010704045114825159,0.06243571708960277,0.00272175608539331,0.07586151828982124,0.23203579707686076,0.14109980074392184,0.8230222449684363,-2.773617778102547,9.0
,,0.010704045114825159,0.06243571708960277,0.00272175608539331,0.07586151828982124,0.23083067730287604,0.14109980074392184,0.8230222449684363,-2.773617778102547,9.1
,,0.011919395139835389,0.06573870885095537,0.0027508015616081066,0.08040890555239887,0.229750540562564,0.1482347640221027,0.8175550755148185,-2.722067351173871,9.2
,,0.011919395139835389,0.06573870885095537,0.0027508015616081066,0.08040890555239887,0.22867040382225196,0.1482347640221027,0.8175550755148185,-2.722067351173871,9.3
,,0.011919395139835389,0.06573870885095537,0.0027508015616081066,0.08040890555239887,0.2275908781473652,0.1482347640221027,0.8175550755148185,-2.722067351173871,9.4
,,0.011919395139835389,0.06573870885095537,0.0027508015616081066,0.08040890555239887,0.2265113524724785,0.1482347640221027,0.8175550755148185,-2.722067351173871,9.5
,,0.011919395139835389,0.06573870885095537,0.0027508015616081066,0.08040890555239887,0.22543182679759177,0.1482347640221027,0.8175550755148185,-2.722067351173871,9.6
,,0.011919395139835389,0.06573870885095537,0.0027508015616081066,0.08040890555239887,0.22435230112270504,0.1482347640221027,0.8175550755148185,-2.722067351173871,9.7
,,0.011919395139835389,0.06573870885095537,0.0027508015616081066,0.08040890555239887,0.22284772164706976,0.1482347640221027,0.8175550755148185,-2.722067351173871,9.8
,,0.01321149271161408,0.06204344978128077,0.0023636339402047656,0.07761857643309962,0.2217434542020514,0.17021044856447765,0.7993376409673882,-2.7799203364608642,9.9
,,0.014273592047293249,0.06298426806574633,0.002232838884468457,0.07949069899750805,0.22081237890814473,0.17956304608342558,0.7923476439390831,-2.764870297016269,10.0
,,0.014273592047293249,0.06298426806574633,0.002232838884468457,0.07949069899750805,0.219881303614238,0.17956304608342558,0.7923476439390831,-2.764870297016269,10.1
,,0.014273592047293249,0.06298426806574633,0.002232838884468457,0.07949069899750805,0.2199655566132101,0.17956304608342558,0.7923476439390831,-2.764870297016269,10.2
,,0.014273592047293249,0.06298426806574633,0.002232838884468457,0.07949069899750805,0.22004772929122002,0.17956304608342558,0.7923476439390831,-2.764870297016269,10.3
,,0.014273592047293249,0.06298426806574633,0.002232838884468457,0.07949069899750805,0.22012789775757108,0.17956304608342558,0.7923476439390831,-2.764870297016269,10.4
,,0.014273592047293249,0.06298426806574633,0.002232838884468457,0.07949069899750805,0.22020613445364864,0.17956304608342558,0.7923476439390831,-2.764870297016269,10.5
,,0.014273592047293249,0.06298426806574633,0.002232838884468457,0.07949069899750805,0.22028250837124816,0.17956304608342558,0.7923476439390831,-2.764870297016269,10.6
,,0.01571550351427554,0.058468081422473506,0.001895978312292634,0.07607956324904168,0.2184744201699672,0.20656668943842155,0.7685123169159359,-2.839274290357143,10.7
,,0.01571550351427554,0.058468081422473506,0.001895978312292634,0.07607956324904168,0.2166663319686862,0.20656668943842155,0.7685123169159359,-2.839274290357143,10.8
,,0.016268918875342993,0.058081711688299203,0.001709866645859246,0.07606049720950143,0.21499296095534523,0.2138944586508789,0.7636251907257275,-2.8459044376825915,10.9
,,0.016268918875342993,0.058081711688299203,0.001709866645859246,0.07606049720950143,0.2133195899420042,0.2138944586508789,0.7636251907257275,-2.8459044376825915,11.0
,,0.016268918875342993,0.058081711688299203,0.001709866645859246,0.07606049720950143,0.2141052887024965,0.2138944586508789,0.7636251907257275,-2.8459044376825915,11.1
,,0.016268918875342993,0.058081711688299203,0.001709866645859246,0.07606049720950143,0.2148727153987913,0.2138944586508789,0.7636251907257275,-2.8459044376825915,11.2
,,0.016268918875342993,0.058081711688299203,0.001709866645859246,0.07606049720950143,0.21562250010206785,0.2138944586508789,0.7636251907257275,-2.8459044376825915,11.3
,,0.016268918875342993,0.058081711688299203,0.001709866645859246,0.07606049720950143,0.21635524424390631,0.2138944586508789,0.7636251907257275,-2.8459044376825915,11.4
,,0.016268918875342993,0.058081711688299203,0.001709866645859246,0.07606049720950143,0.21587484040980806,0.2138944586508789,0.7636251907257275,-2.8459044376825915,11.5
,,0.017882186449515634,0.054579015894625174,0.001512654715965573,0.07397385706010637,0.21593460142999585,0.24173656965035265,0.7378149262958913,-2.9081057943770436,11.6
,,0.017882186449515634,0.054579015894625174,0.001512654715965573,0.07397385706010637,0.2159943624501836,0.24173656965035265,0.7378149262958913,-2.9081057943770436,11.7
,,0.017933158208094574,0.054319818596732704,0.0013658708563139843,0.07361884766114127,0.216082552481985,0.2435946605771222,0.7378520626505908,-2.91286613526723,11.8
,,0.017933158208094574,0.054319818596732704,0.0013658708563139843,0.07361884766114127,0.21653194045780824,0.2435946605771222,0.7378520626505908,-2.91286613526723,11.9
,,0.017933158208094574,0.054319818596732704,0.0013658708563139843,0.07361884766114127,0.21698132843363147,0.2435946605771222,0.7378520626505908,-2.91286613526723,12.0
,,0.017933158208094574,0.054319818596732704,0.0013658708563139843,0.07361884766114127,0.2174307164094547,0.2435946605771222,0.7378520626505908,-2.91286613526723,12.1
,,0.017933158208094574,0.054319818596732704,0.0013658708563139843,0.07361884766114127,0.21788010438527794,0.2435946605771222,0.7378520626505908,-2.91286613526723,12.2
,,0.017933158208094574,0.054319818596732704,0.0013658708563139843,0.07361884766114127,0.2183294923611012,0.2435946605771222,0.7378520626505908,-2.91286613526723,12.3
,,0.017933158208094574,0.054319818596732704,0.0013658708563139843,0.07361884766114127,0.21869005585918522,0.2435946605771222,0.7378520626505908,-2.91286613526723,12.4
,,,0.052184767523812015,0.0012053866760765122,0.053390154199888525,0.2177737271109962,,0.9774230531051917,-2.952964636566993,12.5
,,,0.052184767523812015,0.0012053866760765122,0.053390154199888525,0.2166618843527768,,0.9774230531051917,-2.952964636566993,12.6
,,,0.052184767523812015,0.0012053866760765122,0.053390154199888525,0.21570013408690797,,0.9774230531051917,-2.952964636566993,12.7
,,,0.052184767523812015,0.0012053866760765122,0.053390154199888525,0.21465060018175686,,0.9774230531051917,-2.952964636566993,12.8
,,,0.052184767523812015,0.0012053866760765122,0.053390154199888525,0.21357577630298766,,0.9774230531051917,-2.952964636566993,12.9
,,,0.052184767523812015,0.0012053866760765122,0.053390154199888525,0.21247473720766308,,0.9774230531051917,-2.952964636566993,13.0
,,,0.052184767523812015,0.0012053866760765122,0.053390154199888525,0.21134651196183668,,0.9774230531051917,-2.952964636566993,13.1
,,,0.052184767523812015,0.0012053866760765122,0.053390154199888525,0.21019008108486462,,0.9774230531051917,-2.952964636566993,13.2
,,,0.036877309087890615,0.0008378888072404267,0.037715197895131045,0.20959882048054287,,0.9777837886580837,-3.3001588469500347,13.3
,,,0.0360022064215402,0.000847089154514857,0.036849295576055055,0.20899239934790523,,0.9770120665463874,-3.324175052916923,13.4
,,,0.0360022064215402,0.000847089154514857,0.036849295576055055,0.2083702270170172,,0.9770120665463874,-3.324175052916923,13.5
,,,0.0360022064215402,0.000847089154514857,0.036849295576055055,0.20823446525205658,,0.9770120665463874,-3.324175052916923,13.6
,,,0.0360022064215402,0.000847089154514857,0.036849295576055055,0.20758559587106692,,0.9770120665463874,-3.324175052916923,13.7
,,,0.0360022064215402,0.000847089154514857,0.036849295576055055,0.20710478373908048,,0.9770120665463874,-3.324175052916923,13.8
,,,0.0360022064215402,0.000847089154514857,0.036849295576055055,0.20661079867197107,,0.9770120665463874,-3.324175052916923,13.9
,,,0.0360022064215402,0.000847089154514857,0.036849295576055055,0.206103091797442,,0.9770120665463874,-3.324175052916923,14.0
,,,0.0360022064215402,0.000847089154514857,0.036849295576055055,0.20558108332081348,,0.9770120665463874,-3.324175052916923,14.1
,,0.018654065336638263,0.053280617547422665,0.0011280251821198877,0.07306270806618083,0.2070873380712177,0.2553158215781059,0.7292450411112688,-2.9321826622123943,14.2
,,0.019311922691246517,0.052839801602662696,0.0012289415241295916,0.07338066581803881,0.20933955472837076,0.2631745361800623,0.7200779798549244,-2.9404905540159336,14.3
,,0.019311922691246517,0.052839801602662696,0.0012289415241295916,0.07338066581803881,0.21159177138552385,0.2631745361800623,0.7200779798549244,-2.9404905540159336,14.4
,,0.019311922691246517,0.052839801602662696,0.0012289415241295916,0.07338066581803881,0.2138439880426769,0.2631745361800623,0.7200779798549244,-2.9404905540159336,14.5
,,0.019311922691246517,0.052839801602662696,0.0012289415241295916,0.07338066581803881,0.21595005217587002,0.2631745361800623,0.7200779798549244,-2.9404905540159336,14.6
,,0.019311922691246517,0.052839801602662696,0.0012289415241295916,0.07338066581803881,0.21817098804611817,0.2631745361800623,0.7200779798549244,-2.9404905540159336,14.7
,,0.019311922691246517,0.052839801602662696,0.0012289415241295916,0.07338066581803881,0.2208979374144188,0.2631745361800623,0.7200779798549244,-2.9404905540159336,14.8
,,0.019311922691246517,0.052839801602662696,0.0012289415241295916,0.07338066581803881,0.22362488678271944,0.2631745361800623,0.7200779798549244,-2.9404905540159336,14.9
,,0.019311922691246517,0.052839801602662696,0.0012289415241295916,0.07338066581803881,0.2263518361510201,0.2631745361800623,0.7200779798549244,-2.9404905540159336,15.0
,,0.018425141194912134,0.05622435178830627,0.0012584417604400609,0.07590793474365846,0.22855415891170436,0.2427301079542467,0.740691364851069,-2.87840531009061,15.1
,,0.01881679801187826,0.05714315931325347,0.0014249194567739134,0.07738487678190564,0.2307784918672822,0.24315859628373873,0.7384279938094422,-2.862195592961514,15.2
,,0.01881679801187826,0.05714315931325347,0.0014249194567739134,0.07738487678190564,0.23307103699975645,0.24315859628373873,0.7384279938094422,-2.862195592961514,15.3
,,0.01881679801187826,0.05714315931325347,0.0014249194567739134,0.07738487678190564,0.23536358213223066,0.24315859628373873,0.7384279938094422,-2.862195592961514,15.4
,,0.01881679801187826,0.05714315931325347,0.0014249194567739134,0.07738487678190564,0.23665027585530332,0.24315859628373873,0.7384279938094422,-2.862195592961514,15.5
,,0.01881679801187826,0.05714315931325347,0.0014249194567739134,0.07738487678190564,0.23891141625993548,0.24315859628373873,0.7384279938094422,-2.862195592961514,15.6
,,0.01881679801187826,0.05714315931325347,0.0014249194567739134,0.07738487678190564,0.24146117708438464,0.24315859628373873,0.7384279938094422,-2.862195592961514,15.7
,,0.01881679801187826,0.05714315931325347,0.0014249194567739134,0.07738487678190564,0.24401093790883382,0.24315859628373873,0.7384279938094422,-2.862195592961514,15.8
,,0.01881679801187826,0.05714315931325347,0.0014249194567739134,0.07738487678190564,0.246560698733283,0.24315859628373873,0.7384279938094422,-2.862195592961514,15.9
,,0.01803308682822876,0.06239170452470168,0.0015289300444995897,0.08195372139743003,0.24855892498158194,0.220039877637506,0.7613041050587144,-2.7743229527533693,16.0
,,0.01864193691045097,0.06577851249906487,0.0017542754997707222,0.08617472490928657,0.2504800890276283,0.21632719953646212,0.7633156075439503,-2.721462051747435,16.1
,,0.01864193691045097,0.06577851249906487,0.0017542754997707222,0.08617472490928657,0.2523843372424881,0.21632719953646212,0.7633156075439503,-2.721462051747435,16.2
,,0.01864193691045097,0.06577851249906487,0.0017542754997707222,0.08617472490928657,0.2542885854573478,0.21632719953646212,0.7633156075439503,-2.721462051747435,16.3
,,0.01864193691045097,0.06577851249906487,0.0017542754997707222,0.08617472490928657,0.25619283367220763,0.21632719953646212,0.7633156075439503,-2.721462051747435,16.4
,,0.01864193691045097,0.06577851249906487,0.0017542754997707222,0.08617472490928657,0.2581961836508619,0.21632719953646212,0.7633156075439503,-2.721462051747435,16.5
,,0.01864193691045097,0.06577851249906487,0.0017542754997707222,0.08617472490928657,0.26019953362951614,0.21632719953646212,0.7633156075439503,-2.721462051747435,16.6
,,0.01864193691045097,0.06577851249906487,0.0017542754997707222,0.08617472490928657,0.26220288360817046,0.21632719953646212,0.7633156075439503,-2.721462051747435,16.7
,,0.017270973791320275,0.06892198635153868,0.0018246311185664324,0.08801759126142539,0.26375668058755064,0.19622184092749032,0.7830478585448912,-2.674780046618479,16.8
,,0.017270973791320275,0.06892198635153868,0.0018246311185664324,0.08801759126142539,0.2653104775669308,0.19622184092749032,0.7830478585448912,-2.674780046618479,16.9
,,0.01705319871980124,0.07058630029240932,0.001973366520233533,0.08961286553244409,0.26674107337382136,0.1902985538792661,0.7876804281730478,-2.6509192001621926,17.0
,,0.01705319871980124,0.07058630029240932,0.001973366520233533,0.08961286553244409,0.2680353415762553,0.1902985538792661,0.7876804281730478,-2.6509192001621926,17.1
,,0.01705319871980124,0.07058630029240932,0.001973366520233533,0.08961286553244409,0.26932960977868925,0.1902985538792661,0.7876804281730478,-2.6509192001621926,17.2
,,0.01705319871980124,0.07058630029240932,0.001973366520233533,0.08961286553244409,0.2705837177453353,0.1902985538792661,0.7876804281730478,-2.6509192001621926,17.3
,,0.01705319871980124,0.07058630029240932,0.001973366520233533,0.08961286553244409,0.2718378257119813,0.1902985538792661,0.7876804281730478,-2.6509192001621926,17.4
,,0.01705319871980124,0.07058630029240932,0.001973366520233533,0.08961286553244409,0.2730919336786273,0.1902985538792661,0.7876804281730478,-2.6509192001621926,17.5
,,0.01562876138378876,0.07230180618936201,0.002011853551863193,0.08994242112501395,0.27399763666384896,0.17376407248439338,0.8038676887390804,-2.626906168257233,17.6
,,0.01562876138378876,0.07230180618936201,0.002011853551863193,0.08994242112501395,0.27490333964907065,0.17376407248439338,0.8038676887390804,-2.626906168257233,17.7
,,0.015578224872585297,0.07514526330184734,0.002135778250197165,0.0928592664246298,0.275687783737339,0.16776166205479912,0.8092381750919795,-2.58833219468516,17.8
,,0.015578224872585297,0.07514526330184734,0.002135778250197165,0.0928592664246298,0.2764722278256073,0.16776166205479912,0.8092381750919795,-2.58833219468516,17.9
,,0.015578224872585297,0.07514526330184734,0.002135778250197165,0.0928592664246298,0.27696355779708,0.16776166205479912,0.8092381750919795,-2.58833219468516,18.0
,,0.015578224872585297,0.07514526330184734,0.002135778250197165,0.0928592664246298,0.27745488776855276,0.16776166205479912,0.8092381750919795,-2.58833219468516,18.1
,,0.015578224872585297,0.07514526330184734,0.002135778250197165,0.0928592664246298,0.27781096212824263,0.16776166205479912,0.8092381750919795,-2.58833219468516,18.2
,,0.015578224872585297,0.07514526330184734,0.002135778250197165,0.0928592664246298,0.2781670364879325,0.16776166205479912,0.8092381750919795,-2.58833219468516,18.3
,,0.01447157597044852,0.07733848800036905,0.002184135476861529,0.09399419944767909,0.27824656062770187,0.15396243657039682,0.8228006457294073,-2.5595635430281085,18.4
,,0.01447157597044852,0.07733848800036905,0.002184135476861529,0.09399419944767909,0.27832608476747134,0.15396243657039682,0.8228006457294073,-2.5595635430281085,18.5
,,0.01447157597044852,0.07733848800036905,0.002184135476861529,0.09399419944767909,0.2784056089072407,0.15396243657039682,0.8228006457294073,-2.5595635430281085,18.6
,,0.014748193482120642,0.08067841647433217,0.0022622249881084104,0.09768883494456122,0.2784259856866584,0.15097112674637073,0.8258714163201708,-2.5172841933280563,18.7
,,0.014748193482120642,0.08067841647433217,0.0022622249881084104,0.09768883494456122,0.2784463624660761,0.15097112674637073,0.8258714163201708,-2.5172841933280563,18.8
,,0.014748193482120642,0.08067841647433217,0.0022622249881084104,0.09768883494456122,0.27803352485619603,0.15097112674637073,0.8258714163201708,-2.5172841933280563,18.9
,,0.014748193482120642,0.08067841647433217,0.0022622249881084104,0.09768883494456122,0.2774332601238801,0.15097112674637073,0.8258714163201708,-2.5172841933280563,19.0
,,0.014748193482120642,0.08067841647433217,0.0022622249881084104,0.09768883494456122,0.27683299539156414,0.15097112674637073,0.8258714163201708,-2.5172841933280563,19.1
,,0.014072945071728111,0.0839211802883655,0.002332500742459342,0.10032662610255295,0.2760257470031969,0.14027128807603753,0.8364796420302427,-2.4778772505463174,19.2
,,0.014072945071728111,0.0839211802883655,0.002332500742459342,0.10032662610255295,0.2752184986148296,0.14027128807603753,0.8364796420302427,-2.4778772505463174,19.3
,,0.014072945071728111,0.0839211802883655,0.002332500742459342,0.10032662610255295,0.2744112502264624,0.14027128807603753,0.8364796420302427,-2.4778772505463174,19.4
,,0.015052617049443495,0.08900829920958936,0.0024048593876564595,0.10646577564668931,0.27362348605165354,0.14138456192153404,0.8360273399497576,-2.419025664051518,19.5
,,0.015052617049443495,0.08900829920958936,0.0024048593876564595,0.10646577564668931,0.2728357218768447,0.14138456192153404,0.8360273399497576,-2.419025664051518,19.6
,,0.015052617049443495,0.08900829920958936,0.0024048593876564595,0.10646577564668931,0.271470338561421,0.14138456192153404,0.8360273399497576,-2.419025664051518,19.7
,,0.015052617049443495,0.08900829920958936,0.0024048593876564595,0.10646577564668931,0.27010495524599726,0.14138456192153404,0.8360273399497576,-2.419025664051518,19.8
,,0.015052617049443495,0.08900829920958936,0.0024048593876564595,0.10646577564668931,0.2685845548923961,0.14138456192153404,0.8360273399497576,-2.419025664051518,19.9
,,0.015052617049443495,0.08900829920958936,0.0024048593876564595,0.10646577564668931,0.26706415453879495,0.14138456192153404,0.8360273399497576,-2.419025664051518,20.0
,,,0.07304236053575047,0.0024427654347106927,0.07548512597046117,0.2668830457881691,,0.9676391156097878,-2.6167157248201924,20.1
,,,0.07304236053575047,0.0024427654347106927,0.07548512597046117,0.2666968353825962,,0.9676391156097878,-2.6167157248201924,20.2
,,0.016508813551346587,0.09736335723572095,0.002471932831479574,0.11634410361854712,0.2651398608844969,0.1418964351255255,0.8368568256363245,-2.3293053481968773,20.3
,,0.016508813551346587,0.09736335723572095,0.002471932831479574,0.11634410361854712,0.26358288638639765,0.1418964351255255,0.8368568256363245,-2.3293053481968773,20.4
,,0.016508813551346587,0.09736335723572095,0.002471932831479574,0.11634410361854712,0.2620259118882983,0.1418964351255255,0.8368568256363245,-2.3293053481968773,20.5
,,0.016508813551346587,0.09736335723572095,0.002471932831479574,0.11634410361854712,0.25979943728911215,0.1418964351255255,0.8368568256363245,-2.3293053481968773,20.6
,,0.016508813551346587,0.09736335723572095,0.002471932831479574,0.11634410361854712,0.257572962689926,0.1418964351255255,0.8368568256363245,-2.3293053481968773,20.7
,,0.016508813551346587,0.09736335723572095,0.002471932831479574,0.11634410361854712,0.25531125213268346,0.1418964351255255,0.8368568256363245,-2.3293053481968773,20.8
,,0.016460297074965397,0.09980540540056956,0.002482863494209165,0.11874856596974412,0.2529842614140429,0.13861470191698405,0.8404767214283575,-2.3045329348010886,20.9
,,0.016460297074965397,0.09980540540056956,0.002482863494209165,0.11874856596974412,0.25065727069540233,0.13861470191698405,0.8404767214283575,-2.3045329348010886,21.0
,,0.01878410673185627,0.10306248068748725,0.0024277832981724834,0.124274370717516,0.24857444201033238,0.151150286446059,0.8293140419254682,-2.2724198660487556,21.1
,,0.01878410673185627,0.10306248068748725,0.0024277832981724834,0.124274370717516,0.24649161332526248,0.151150286446059,0.8293140419254682,-2.2724198660487556,21.2
,,0.01878410673185627,0.10306248068748725,0.0024277832981724834,0.124274370717516,0.24440878464019253,0.151150286446059,0.8293140419254682,-2.2724198660487556,21.3
,,0.01878410673185627,0.10306248068748725,0.0024277832981724834,0.124274370717516,0.24232595595512252,0.151150286446059,0.8293140419254682,-2.2724198660487556,21.4
,,0.01878410673185627,0.10306248068748725,0.0024277832981724834,0.124274370717516,0.24149169834662157,0.151150286446059,0.8293140419254682,-2.2724198660487556,21.5
,,0.01878410673185627,0.10306248068748725,0.0024277832981724834,0.124274370717516,0.24068029711095626,0.151150286446059,0.8293140419254682,-2.2724198660487556,21.6
,,0.01878624512080464,0.10422995811201083,0.0023832087633155496,0.12539941199613103,0.2398635152671072,0.14981126962050073,0.8311837866929285,-2.2611556851113397,21.7
,,0.01878624512080464,0.10422995811201083,0.0023832087633155496,0.12539941199613103,0.2390685142724275,0.14981126962050073,0.8311837866929285,-2.2611556851113397,21.8
,,0.01878624512080464,0.10422995811201083,0.0023832087633155496,0.12539941199613103,0.23829443435655515,0.14981126962050073,0.8311837866929285,-2.2611556851113397,21.9
,,0.02160834313131319,0.10558232003320521,0.0022860538190945185,0.12947671698361293,0.23785760697840003,0.1668897979089787,0.815454102428069,-2.248264345654907,22.0
,,0.02160834313131319,0.10558232003320521,0.0022860538190945185,0.12947671698361293,0.23743198030224888,0.1668897979089787,0.815454102428069,-2.248264345654907,22.1
,,0.02160834313131319,0.10558232003320521,0.0022860538190945185,0.12947671698361293,0.23701712898498767,0.1668897979089787,0.815454102428069,-2.248264345654907,22.2
,,0.02160834313131319,0.10558232003320521,0.0022860538190945185,0.12947671698361293,0.23661264895065792,0.1668897979089787,0.815454102428069,-2.248264345654907,22.3
,,0.02160834313131319,0.10558232003320521,0.0022860538190945185,0.12947671698361293,0.23621815607766972,0.1668897979089787,0.815454102428069,-2.248264345654907,22.4
,,0.02161112978762073,0.10597177567417641,0.0022027138933562278,0.12978561935515337,0.23582443324190566,0.16651405521656987,0.8165140036369416,-2.244582487550232,22.5
,,0.02161112978762073,0.10597177567417641,0.0022027138933562278,0.12978561935515337,0.235440197703389,0.16651405521656987,0.8165140036369416,-2.244582487550232,22.6
,,0.02161112978762073,0.10597177567417641,0.0022027138933562278,0.12978561935515337,0.23506511063007507,0.16651405521656987,0.8165140036369416,-2.244582487550232,22.7
,,0.024344700264807742,0.10457538617219378,0.0020829520412247965,0.13100303847822634,0.2350384116857701,0.18583309629764053,0.7982668752341571,-2.2578470688833203,22.8
,,0.024344700264807742,0.10457538617219378,0.0020829520412247965,0.13100303847822634,0.23501233364714666,0.18583309629764053,0.7982668752341571,-2.2578470688833203,22.9
,,0.024344700264807742,0.10457538617219378,0.0020829520412247965,0.13100303847822634,0.234986855103664,0.18583309629764053,0.7982668752341571,-2.2578470688833203,23.0
,,0.024344700264807742,0.10457538617219378,0.0020829520412247965,0.13100303847822634,0.23496195561798772,0.18583309629764053,0.7982668752341571,-2.2578470688833203,23.1
,,0.024344700264807742,0.10457538617219378,0.0020829520412247965,0.13100303847822634,0.2336288410662535,0.18583309629764053,0.7982668752341571,-2.2578470688833203,23.2
,,,0.09589539889190898,0.0018100597301385064,0.09770545862204749,0.23211330354250265,,0.9814743233830944,-2.344497276430294,23.3
,,,0.09589539889190898,0.0018100597301385064,0.09770545862204749,0.23056252096005989,,0.9814743233830944,-2.344497276430294,23.4
,,,0.09589539889190898,0.0018100597301385064,0.09770545862204749,0.2289752493756773,,0.9814743233830944,-2.344497276430294,23.5
,,,0.09589539889190898,0.0018100597301385064,0.09770545862204749,0.22735018561071416,,0.9814743233830944,-2.344497276430294,23.6
,,0.02192276854201763,0.08347077757151199,0.0015458026469100717,0.10693934876043969,0.2261258931886366,0.20500188935251465,0.7805431633822565,-2.48325867758229,23.7
,,0.02192276854201763,0.08347077757151199,0.0015458026469100717,0.10693934876043969,0.22490160076655902,0.20500188935251465,0.7805431633822565,-2.48325867758229,23.8
,,0.02192276854201763,0.08347077757151199,0.0015458026469100717,0.10693934876043969,0.22367730834448143,0.20500188935251465,0.7805431633822565,-2.48325867758229,23.9
,,0.02192276854201763,0.08347077757151199,0.0015458026469100717,0.10693934876043969,0.22245301592240385,0.20500188935251465,0.7805431633822565,-2.48325867758229,24.0
,,0.02192276854201763,0.08347077757151199,0.0015458026469100717,0.10693934876043969,0.22167840344971174,0.20500188935251465,0.7805431633822565,-2.48325867758229,24.1
,,0.02097368072574424,0.06562629739808185,0.0011836324978649405,0.08778361062169102,0.2215629320469655,0.2389247899147329,0.7475916852053682,-2.723778788390238,24.2
,,0.02097368072574424,0.06562629739808185,0.0011836324978649405,0.08778361062169102,0.22144746064421925,0.2389247899147329,0.7475916852053682,-2.723778788390238,24.3
,,0.02097368072574424,0.06562629739808185,0.0011836324978649405,0.08778361062169102,0.221331989241473,0.2389247899147329,0.7475916852053682,-2.723778788390238,24.4
,,0.019445865234834596,0.06850362191048251,0.0012319586753041323,0.08918144582062125,0.22079120365900162,0.21804832895339948,0.7681376017189727,-2.680868660506186,24.5
,,0.019445865234834596,0.06850362191048251,0.0012319586753041323,0.08918144582062125,0.22025041807653023,0.21804832895339948,0.7681376017189727,-2.680868660506186,24.6
,,0.019445865234834596,0.06850362191048251,0.0012319586753041323,0.08918144582062125,0.21970963249405884,0.21804832895339948,0.7681376017189727,-2.680868660506186,24.7
,,0.01758532587936739,0.0637071681400614,0.0010997764296132475,0.08239227044904203,0.21907560254855535,0.21343417026289574,0.7732177762896218,-2.7534581930637145,24.8
,,0.019445865234834596,0.06850362191048251,0.0012319586753041323,0.08918144582062125,0.2185348169660839,0.21804832895339948,0.7681376017189727,-2.680868660506186,24.9
,,0.01759945180107828,0.0641670589841944,0.0011011266064498671,0.08286763739172255,0.21835916570581193,0.2123802772110436,0.7743319467510714,-2.746265299901705,25.0
,,0.01759945180107828,0.0641670589841944,0.0011011266064498671,0.08286763739172255,0.21825048516892606,0.2123802772110436,0.7743319467510714,-2.746265299901705,25.1
,,0.01759945180107828,0.0641670589841944,0.0011011266064498671,0.08286763739172255,0.21814180463204016,0.2123802772110436,0.7743319467510714,-2.746265299901705,25.2
,,0.01759945180107828,0.0641670589841944,0.0011011266064498671,0.08286763739172255,0.21803312409515432,0.2123802772110436,0.7743319467510714,-2.746265299901705,25.3
,,0.01712025350078828,0.05851534993130064,0.0010679885675748124,0.07670359199966373,0.21814232024999772,0.22320015340172514,0.7628762670144206,-2.838466167175038,25.4
,,0.01712025350078828,0.05851534993130064,0.0010679885675748124,0.07670359199966373,0.21825151640484117,0.22320015340172514,0.7628762670144206,-2.838466167175038,25.5
,,0.01712025350078828,0.05851534993130064,0.0010679885675748124,0.07670359199966373,0.21836071255968462,0.22320015340172514,0.7628762670144206,-2.838466167175038,25.6
,,0.015487937459156288,0.055494264570914456,0.0009768331740378057,0.07195903520410855,0.2183093568292795,0.21523270031658223,0.7711924487801634,-2.8914756046344086,25.7
,,0.015487937459156288,0.055494264570914456,0.0009768331740378057,0.07195903520410855,0.2186486840625293,0.21523270031658223,0.7711924487801634,-2.8914756046344086,25.8
,,0.015487937459156288,0.055494264570914456,0.0009768331740378057,0.07195903520410855,0.21898801129577908,0.21523270031658223,0.7711924487801634,-2.8914756046344086,25.9
,,0.015487937459156288,0.055494264570914456,0.0009768331740378057,0.07195903520410855,0.21943440621464486,0.21523270031658223,0.7711924487801634,-2.8914756046344086,26.0
,,0.015487937459156288,0.055494264570914456,0.0009768331740378057,0.07195903520410855,0.21988080113351063,0.21523270031658223,0.7711924487801634,-2.8914756046344086,26.1
,,0.015145891737508977,0.052540793045193365,0.0010026890013981747,0.06868937378410052,0.22043646283881632,0.2204983231484167,0.7649042370124933,-2.9461654007162115,26.2
,,0.015145891737508977,0.052540793045193365,0.0010026890013981747,0.06868937378410052,0.220992124544122,0.2204983231484167,0.7649042370124933,-2.9461654007162115,26.3
,,0.015145891737508977,0.052540793045193365,0.0010026890013981747,0.06868937378410052,0.22154778624942773,0.2204983231484167,0.7649042370124933,-2.9461654007162115,26.4
,,0.0162850714035269,0.046166940819615636,0.0008856832540702853,0.06333769547721282,0.2228709949363013,0.2571149973302364,0.7289014933646464,-3.0754913037094607,26.5
,,0.0162850714035269,0.046166940819615636,0.0008856832540702853,0.06333769547721282,0.22449698414274605,0.2571149973302364,0.7289014933646464,-3.0754913037094607,26.6
,,0.0162850714035269,0.046166940819615636,0.0008856832540702853,0.06333769547721282,0.2261229733491908,0.2571149973302364,0.7289014933646464,-3.0754913037094607,26.7
,,0.0162850714035269,0.046166940819615636,0.0008856832540702853,0.06333769547721282,0.22785434231132112,0.2571149973302364,0.7289014933646464,-3.0754913037094607,26.8
,,0.0162850714035269,0.046166940819615636,0.0008856832540702853,0.06333769547721282,0.22958571127345145,0.2571149973302364,0.7289014933646464,-3.0754913037094607,26.9
,,0.01340627404667792,0.04914565420388062,0.001007814866943311,0.06355974311750184,0.23036521628000037,0.21092398095275436,0.7732198368553168,-3.0129668553443283,27.0
,,0.01340627404667792,0.04914565420388062,0.001007814866943311,0.06355974311750184,0.23114472128654923,0.21092398095275436,0.7732198368553168,-3.0129668553443283,27.1
,,0.01340627404667792,0.04914565420388062,0.001007814866943311,0.06355974311750184,0.23192422629309806,0.21092398095275436,0.7732198368553168,-3.0129668553443283,27.2
,,0.01340627404667792,0.04914565420388062,0.001007814866943311,0.06355974311750184,0.23270373129964697,0.21092398095275436,0.7732198368553168,-3.0129668553443283,27.3
,,0.012322220639656255,0.048318467010455425,0.0009758139463472589,0.061616501596458935,0.23351207605824753,0.19998247742718983,0.7841806295155235,-3.029941451635849,27.4
,,0.012322220639656255,0.048318467010455425,0.0009758139463472589,0.061616501596458935,0.2343204208168481,0.19998247742718983,0.7841806295155235,-3.029941451635849,27.5
,,0.012322220639656255,0.048318467010455425,0.0009758139463472589,0.061616501596458935,0.23512876557544865,0.19998247742718983,0.7841806295155235,-3.029941451635849,27.6
,,0.012012038318920745,0.048162634522318795,0.0010891281816263222,0.06126380102286586,0.2359216648475908,0.19607073211858694,0.7861515890002118,-3.0331717759412355,27.7
,,0.012012038318920745,0.048162634522318795,0.0010891281816263222,0.06126380102286586,0.23671456411973293,0.19607073211858694,0.7861515890002118,-3.0331717759412355,27.8
,,0.012012038318920745,0.048162634522318795,0.0010891281816263222,0.06126380102286586,0.2375074633918751,0.19607073211858694,0.7861515890002118,-3.0331717759412355,27.9
,,0.012012038318920745,0.048162634522318795,0.0010891281816263222,0.06126380102286586,0.2383003626640172,0.19607073211858694,0.7861515890002118,-3.0331717759412355,28.0
,,0.012012038318920745,0.048162634522318795,0.0010891281816263222,0.06126380102286586,0.23909326193615935,0.19607073211858694,0.7861515890002118,-3.0331717759412355,28.1
,,0.012012038318920745,0.048162634522318795,0.0010891281816263222,0.06126380102286586,0.24006603986177466,0.19607073211858694,0.7861515890002118,-3.0331717759412355,28.2
,,0.01138311121416044,0.04864808952581506,0.0010930296582849128,0.06112423039826041,0.24085528335021977,0.18622911307009932,0.7958887859829737,-3.02314274088862,28.3
,,0.011013245892475536,0.04897234257779153,0.0012368427889981486,0.061222431259265214,0.24153617196557994,0.17988906461157284,0.7999084905727295,-3.0164995774140744,28.4
,,0.011013245892475536,0.04897234257779153,0.0012368427889981486,0.061222431259265214,0.2422001278715382,0.17988906461157284,0.7999084905727295,-3.0164995774140744,28.5
,,0.011013245892475536,0.04897234257779153,0.0012368427889981486,0.061222431259265214,0.24286408377749644,0.17988906461157284,0.7999084905727295,-3.0164995774140744,28.6
,,0.011013245892475536,0.04897234257779153,0.0012368427889981486,0.061222431259265214,0.24352803968345466,0.17988906461157284,0.7999084905727295,-3.0164995774140744,28.7
,,0.011013245892475536,0.04897234257779153,0.0012368427889981486,0.061222431259265214,0.2441919955894129,0.17988906461157284,0.7999084905727295,-3.0164995774140744,28.8
,,0.011013245892475536,0.04897234257779153,0.0012368427889981486,0.061222431259265214,0.24485595149537115,0.17988906461157284,0.7999084905727295,-3.0164995774140744,28.9
,,0.011013245892475536,0.04897234257779153,0.0012368427889981486,0.061222431259265214,0.24551990740132934,0.17988906461157284,0.7999084905727295,-3.0164995774140744,29.0
,,0.011013245892475536,0.04897234257779153,0.0012368427889981486,0.061222431259265214,0.24527716795980142,0.17988906461157284,0.7999084905727295,-3.0164995774140744,29.1
,,,0.0579222226760061,0.0018069472336855494,0.05972916990969165,0.24527716795980142,,0.9697476586998014,-2.8486541567099306,29.2
,,,0.0579222226760061,0.0018069472336855494,0.05972916990969165,0.24617857715909905,,0.9697476586998014,-2.8486541567099306,29.3
,,,0.0579222226760061,0.0018069472336855494,0.05972916990969165,0.2471017070619942,,0.9697476586998014,-2.8486541567099306,29.4
,,,0.0579222226760061,0.0018069472336855494,0.05972916990969165,0.24804735232837463,,0.9697476586998014,-2.8486541567099306,29.5
,,,0.0579222226760061,0.0018069472336855494,0.05972916990969165,0.2490163468605916,,0.9697476586998014,-2.8486541567099306,29.6
,,,0.0579222226760061,0.0018069472336855494,0.05972916990969165,0.250009566256114,,0.9697476586998014,-2.8486541567099306,29.7
,,,0.0579222226760061,0.0018069472336855494,0.05972916990969165,0.2510279304464597,,0.9697476586998014,-2.8486541567099306,29.8
,,,0.0579222226760061,0.0018069472336855494,0.05972916990969165,0.25213182822449715,,0.9697476586998014,-2.8486541567099306,29.9
,,,0.059850384503323036,0.0018152976935354001,0.06166568219685844,0.253264398672094,,0.970562270149865,-2.8159074225489498,30.0
,,0.010209674251229374,0.052937817561683434,0.0015326821766244573,0.06468017398953727,0.2534020899797656,0.15784858978395608,0.8184550890392891,-2.938637307783919,30.1
,,0.010209674251229374,0.052937817561683434,0.0015326821766244573,0.06468017398953727,0.2535397812874372,0.15784858978395608,0.8184550890392891,-2.938637307783919,30.2
,,0.010209674251229374,0.052937817561683434,0.0015326821766244573,0.06468017398953727,0.25367747259510887,0.15784858978395608,0.8184550890392891,-2.938637307783919,30.3
,,0.010209674251229374,0.052937817561683434,0.0015326821766244573,0.06468017398953727,0.2538151639027806,0.15784858978395608,0.8184550890392891,-2.938637307783919,30.4
,,0.010209674251229374,0.052937817561683434,0.0015326821766244573,0.06468017398953727,0.2539528552104522,0.15784858978395608,0.8184550890392891,-2.938637307783919,30.5
,,0.010209674251229374,0.052937817561683434,0.0015326821766244573,0.06468017398953727,0.2540905465181238,0.15784858978395608,0.8184550890392891,-2.938637307783919,30.6
,,0.010209674251229374,0.052937817561683434,0.0015326821766244573,0.06468017398953727,0.25425448415666463,0.15784858978395608,0.8184550890392891,-2.938637307783919,30.7
,,0.014505064505752667,0.061613100312484445,0.001968077468490883,0.07808624228672799,0.25497115063965065,0.18575697947521846,0.789039125307693,-2.786880763642709,30.8
,,0.014505064505752667,0.061613100312484445,0.001968077468490883,0.07808624228672799,0.2556878171226367,0.18575697947521846,0.789039125307693,-2.786880763642709,30.9
,,0.010855414512460323,0.056424677586882264,0.0016514837153679754,0.06893157581471057,0.25552845327630996,0.15748101482026017,0.8185606802106614,-2.874848670306697,31.0
,,0.010855414512460323,0.056424677586882264,0.0016514837153679754,0.06893157581471057,0.25536908942998326,0.15748101482026017,0.8185606802106614,-2.874848670306697,31.1
,,0.010855414512460323,0.056424677586882264,0.0016514837153679754,0.06893157581471057,0.25520972558365657,0.15748101482026017,0.8185606802106614,-2.874848670306697,31.2
,,0.010855414512460323,0.056424677586882264,0.0016514837153679754,0.06893157581471057,0.2550503617373298,0.15748101482026017,0.8185606802106614,-2.874848670306697,31.3
,,0.010855414512460323,0.056424677586882264,0.0016514837153679754,0.06893157581471057,0.2548909978910031,0.15748101482026017,0.8185606802106614,-2.874848670306697,31.4
,,0.010855414512460323,0.056424677586882264,0.0016514837153679754,0.06893157581471057,0.2547410605731646,0.15748101482026017,0.8185606802106614,-2.874848670306697,31.5
,,0.015233149119982772,0.0646855461833064,0.0020993076547487707,0.08201800295803793,0.2551509634941557,0.18572933466541922,0.7886749719619585,-2.73821749990816,31.6
,,0.015233149119982772,0.0646855461833064,0.0020993076547487707,0.08201800295803793,0.25556086641514697,0.18572933466541922,0.7886749719619585,-2.73821749990816,31.7
,,0.015233149119982772,0.0646855461833064,0.0020993076547487707,0.08201800295803793,0.2555959275592663,0.18572933466541922,0.7886749719619585,-2.73821749990816,31.8
,,0.01649592873251507,0.06658098615485908,0.0022291135282897093,0.08530602841566386,0.25579023470566464,0.1933735404036943,0.7804956741208867,-2.709336235367011,31.9
,,0.01649592873251507,0.06658098615485908,0.0022291135282897093,0.08530602841566386,0.255984541852063,0.1933735404036943,0.7804956741208867,-2.709336235367011,32.0
,,0.01649592873251507,0.06658098615485908,0.0022291135282897093,0.08530602841566386,0.25617884899846133,0.1933735404036943,0.7804956741208867,-2.709336235367011,32.1
,,0.01649592873251507,0.06658098615485908,0.0022291135282897093,0.08530602841566386,0.2563731561448596,0.1933735404036943,0.7804956741208867,-2.709336235367011,32.2
,,0.01649592873251507,0.06658098615485908,0.0022291135282897093,0.08530602841566386,0.2562626970998848,0.1933735404036943,0.7804956741208867,-2.709336235367011,32.3
,,0.01649592873251507,0.06658098615485908,0.0022291135282897093,0.08530602841566386,0.25615503448642835,0.1933735404036943,0.7804956741208867,-2.709336235367011,32.4
,,,0.06699857148308484,0.002141220342220273,0.06913979182530512,0.25615503448642835,,0.9690305642280428,-2.7030839809664573,32.5
,,,0.06699857148308484,0.002141220342220273,0.06913979182530512,0.25615503448642835,,0.9690305642280428,-2.7030839809664573,32.6
,,,0.06699857148308484,0.002141220342220273,0.06913979182530512,0.2560718933621766,,0.9690305642280428,-2.7030839809664573,32.7
,,,0.06699857148308484,0.002141220342220273,0.06913979182530512,0.25598659272820407,,0.9690305642280428,-2.7030839809664573,32.8
,,0.014476401198830232,0.06564502468069047,0.0018542389641507668,0.08197566484367147,0.2554396504852127,0.17659388583717978,0.8007867311094858,-2.7234934666240043,32.9
,,0.014476401198830232,0.06564502468069047,0.0018542389641507668,0.08197566484367147,0.2548927082422213,0.17659388583717978,0.8007867311094858,-2.7234934666240043,33.0
,,0.014476401198830232,0.06564502468069047,0.0018542389641507668,0.08197566484367147,0.2543457659992299,0.17659388583717978,0.8007867311094858,-2.7234934666240043,33.1
,,0.014476401198830232,0.06564502468069047,0.0018542389641507668,0.08197566484367147,0.25305917980938414,0.17659388583717978,0.8007867311094858,-2.7234934666240043,33.2
,,0.014637448444753974,0.06510537477949487,0.0017490050022933995,0.08149182822654223,0.2518284578612966,0.1796186042613104,0.7989190596940096,-2.7317481712786567,33.3
,,0.014637448444753974,0.06510537477949487,0.0017490050022933995,0.08149182822654223,0.25059773591320905,0.1796186042613104,0.7989190596940096,-2.7317481712786567,33.4
,,0.014637448444753974,0.06510537477949487,0.0017490050022933995,0.08149182822654223,0.24983099307027615,0.1796186042613104,0.7989190596940096,-2.7317481712786567,33.5
,,0.014637448444753974,0.06510537477949487,0.0017490050022933995,0.08149182822654223,0.2490642502273433,0.1796186042613104,0.7989190596940096,-2.7317481712786567,33.6
,,0.014637448444753974,0.06510537477949487,0.0017490050022933995,0.08149182822654223,0.24829750738441042,0.1796186042613104,0.7989190596940096,-2.7317481712786567,33.7
,,0.021534221152929307,0.07336547330967585,0.0022974813492719166,0.09719717581187708,0.24852459985365538,0.22155192239955926,0.7548107514118833,-2.6123018449065123,33.8
,,0.021534221152929307,0.07336547330967585,0.0022974813492719166,0.09719717581187708,0.24864997119959267,0.22155192239955926,0.7548107514118833,-2.6123018449065123,33.9
,,0.021534221152929307,0.07336547330967585,0.0022974813492719166,0.09719717581187708,0.2488998976233769,0.22155192239955926,0.7548107514118833,-2.6123018449065123,34.0
,,0.016960364756942715,0.06879320747649761,0.001736645663240316,0.08749021789668064,0.24853971289963003,0.19385441212378313,0.7862959897726762,-2.676650267456101,34.1
,,0.016960364756942715,0.06879320747649761,0.001736645663240316,0.08749021789668064,0.24817952817588318,0.19385441212378313,0.7862959897726762,-2.676650267456101,34.2
,,0.016960364756942715,0.06879320747649761,0.001736645663240316,0.08749021789668064,0.24781934345213627,0.19385441212378313,0.7862959897726762,-2.676650267456101,34.3
,,0.016960364756942715,0.06879320747649761,0.001736645663240316,0.08749021789668064,0.24722147506468467,0.19385441212378313,0.7862959897726762,-2.676650267456101,34.4
,,0.016960364756942715,0.06879320747649761,0.001736645663240316,0.08749021789668064,0.2466236066772331,0.19385441212378313,0.7862959897726762,-2.676650267456101,34.5
,,0.018864768903682237,0.07050940525829918,0.0018061192882004575,0.09118029345018189,0.24629857479637712,0.20689524227062692,0.773296537993962,-2.6520091701428217,34.6
,,0.018864768903682237,0.07050940525829918,0.0018061192882004575,0.09118029345018189,0.2461486904267013,0.20689524227062692,0.773296537993962,-2.6520091701428217,34.7
,,0.018864768903682237,0.07050940525829918,0.0018061192882004575,0.09118029345018189,0.24599880605702554,0.20689524227062692,0.773296537993962,-2.6520091701428217,34.8
,,,0.07426742821766917,0.001973688740167236,0.0762411169578364,0.24556338537699815,,0.9741125416452288,-2.60008280537228,34.9
,,,0.07426742821766917,0.001973688740167236,0.0762411169578364,0.24511635347883667,,0.9741125416452288,-2.60008280537228,35.0
,,,0.07426742821766917,0.001973688740167236,0.0762411169578364,0.24465723963748168,,0.9741125416452288,-2.60008280537228,35.1
,,,0.07426742821766917,0.001973688740167236,0.0762411169578364,0.2440598156900491,,0.9741125416452288,-2.60008280537228,35.2
,,,0.07426742821766917,0.001973688740167236,0.0762411169578364,0.2434457966329656,,0.9741125416452288,-2.60008280537228,35.3
,,0.0223513207174638,0.0766095222227042,0.0018310656457261143,0.10079190858589412,0.24349423055417896,0.22175709370972144,0.7600761142192096,-2.5690338989602033,35.4
,,0.0223513207174638,0.0766095222227042,0.0018310656457261143,0.10079190858589412,0.24264719299689647,0.22175709370972144,0.7600761142192096,-2.5690338989602033,35.5
,,0.0223513207174638,0.0766095222227042,0.0018310656457261143,0.10079190858589412,0.24180015543961397,0.22175709370972144,0.7600761142192096,-2.5690338989602033,35.6
,,0.0223513207174638,0.0766095222227042,0.0018310656457261143,0.10079190858589412,0.2409531178823315,0.22175709370972144,0.7600761142192096,-2.5690338989602033,35.7
,,0.022733742394866134,0.07852437335968934,0.0016611078427516347,0.10291922359730712,0.24007490662575862,0.22088917502736546,0.7629709068437233,-2.5443462137269397,35.8
,,0.022733742394866134,0.07852437335968934,0.0016611078427516347,0.10291922359730712,0.23919669536918578,0.22088917502736546,0.7629709068437233,-2.5443462137269397,35.9
,,0.022733742394866134,0.07852437335968934,0.0016611078427516347,0.10291922359730712,0.2394289920607913,0.22088917502736546,0.7629709068437233,-2.5443462137269397,36.0
,,0.022733742394866134,0.07852437335968934,0.0016611078427516347,0.10291922359730712,0.2396612887523968,0.22088917502736546,0.7629709068437233,-2.5443462137269397,36.1
,,0.026327011243245546,0.0865072049640166,0.0018742317228733043,0.11470844793013546,0.24009943597819003,0.22951240051020763,0.7541485088936505,-2.447527574131393,36.2
,,0.026327011243245546,0.0865072049640166,0.0018742317228733043,0.11470844793013546,0.2405375832039833,0.22951240051020763,0.7541485088936505,-2.447527574131393,36.3
,,0.026327011243245546,0.0865072049640166,0.0018742317228733043,0.11470844793013546,0.24122247524758,0.22951240051020763,0.7541485088936505,-2.447527574131393,36.4
,,0.026327011243245546,0.0865072049640166,0.0018742317228733043,0.11470844793013546,0.24190736729117676,0.22951240051020763,0.7541485088936505,-2.447527574131393,36.5
,,0.026434125063232367,0.08887347602422457,0.0017059856438973995,0.11701358673135434,0.24249645820234925,0.2259064592552073,0.75951415990918,-2.4205415384125066,36.6
,,0.026327011243245546,0.0865072049640166,0.0018742317228733043,0.11470844793013546,0.24325933883161519,0.22951240051020763,0.7541485088936505,-2.447527574131393,36.7
,,0.025314074715890644,0.08562514603439651,0.0016012958360896268,0.11254051658637679,0.24390145782677297,0.22493298843587284,0.760838395198566,-2.457776276890002,36.8
,,0.025314074715890644,0.08562514603439651,0.0016012958360896268,0.11254051658637679,0.24454357682193084,0.22493298843587284,0.760838395198566,-2.457776276890002,36.9
,,0.025314074715890644,0.08562514603439651,0.0016012958360896268,0.11254051658637679,0.2451856958170887,0.22493298843587284,0.760838395198566,-2.457776276890002,37.0
,,0.025314074715890644,0.08562514603439651,0.0016012958360896268,0.11254051658637679,0.24582781481224655,0.22493298843587284,0.760838395198566,-2.457776276890002,37.1
,,0.027475871699068517,0.09166655937564493,0.0017518638161547078,0.12089429489086816,0.24652686170204316,0.22727186360507015,0.7582372638708282,-2.3895976404318704,37.2
,,0.027475871699068517,0.09166655937564493,0.0017518638161547078,0.12089429489086816,0.24744003210187163,0.22727186360507015,0.7582372638708282,-2.3895976404318704,37.3
,,0.027475871699068517,0.09166655937564493,0.0017518638161547078,0.12089429489086816,0.24847961652029912,0.22727186360507015,0.7582372638708282,-2.3895976404318704,37.4
,,0.027475871699068517,0.09166655937564493,0.0017518638161547078,0.12089429489086816,0.24951920093872668,0.22727186360507015,0.7582372638708282,-2.3895976404318704,37.5
,,0.027475871699068517,0.09166655937564493,0.0017518638161547078,0.12089429489086816,0.2505587853571542,0.22727186360507015,0.7582372638708282,-2.3895976404318704,37.6
,,0.025948867262647318,0.09058453448665497,0.001484322210308048,0.11801772395961034,0.2514139684491825,0.21987262922921558,0.7675502581091639,-2.401471781534581,37.7
,,0.025948867262647318,0.09058453448665497,0.001484322210308048,0.11801772395961034,0.2522691515412109,0.21987262922921558,0.7675502581091639,-2.401471781534581,37.8
,,0.025948867262647318,0.09058453448665497,0.001484322210308048,0.11801772395961034,0.25312433463323925,0.21987262922921558,0.7675502581091639,-2.401471781534581,37.9
,,0.025948867262647318,0.09058453448665497,0.001484322210308048,0.11801772395961034,0.25397951772526756,0.21987262922921558,0.7675502581091639,-2.401471781534581,38.0
,,0.025948867262647318,0.09058453448665497,0.001484322210308048,0.11801772395961034,0.25483470081729587,0.21987262922921558,0.7675502581091639,-2.401471781534581,38.1
,,0.026604734083019933,0.09432011480802811,0.0015672852347488006,0.12249213412579685,0.2552077666727055,0.21719544910285773,0.7700095641338353,-2.361060805535483,38.2
,,0.026604734083019933,0.09432011480802811,0.0015672852347488006,0.12249213412579685,0.2555707496671582,0.21719544910285773,0.7700095641338353,-2.361060805535483,38.3
,,0.026604734083019933,0.09432011480802811,0.0015672852347488006,0.12249213412579685,0.2559240531150921,0.21719544910285773,0.7700095641338353,-2.361060805535483,38.4
,,0.026604734083019933,0.09432011480802811,0.0015672852347488006,0.12249213412579685,0.2562680591038698,0.21719544910285773,0.7700095641338353,-2.361060805535483,38.5
,,0.026604734083019933,0.09432011480802811,0.0015672852347488006,0.12249213412579685,0.2566031298721598,0.21719544910285773,0.7700095641338353,-2.361060805535483,38.6
,,0.024920651950034484,0.09282954143923385,0.0013649633471109813,0.1191151567363793,0.25675509037722055,0.2092147853626036,0.7793260235108477,-2.376990355373148,38.7
,,0.024920651950034484,0.09282954143923385,0.0013649633471109813,0.1191151567363793,0.2569032037808873,0.2092147853626036,0.7793260235108477,-2.376990355373148,38.8
,,0.024920651950034484,0.09282954143923385,0.0013649633471109813,0.1191151567363793,0.2570476143494625,0.2092147853626036,0.7793260235108477,-2.376990355373148,38.9
,,0.024920651950034484,0.09282954143923385,0.0013649633471109813,0.1191151567363793,0.25718845922498634,0.2092147853626036,0.7793260235108477,-2.376990355373148,39.0
,,0.02632712817191272,0.1015934750675524,0.0015427140045270512,0.12946331724399215,0.2580067342990997,0.20335589055157205,0.7847278845488328,-2.286775967676121,39.1
,,0.02632712817191272,0.1015934750675524,0.0015427140045270512,0.12946331724399215,0.25882500937321296,0.20335589055157205,0.7847278845488328,-2.286775967676121,39.2
,,0.02632712817191272,0.1015934750675524,0.0015427140045270512,0.12946331724399215,0.2596432844473263,0.20335589055157205,0.7847278845488328,-2.286775967676121,39.3
,,0.02632712817191272,0.1015934750675524,0.0015427140045270512,0.12946331724399215,0.2604615595214397,0.20335589055157205,0.7847278845488328,-2.286775967676121,39.4
,,0.025905932524864415,0.09075369208334128,0.0012656512592573266,0.11792527586746303,0.2616046653111436,0.21968091517530355,0.7695864301843137,-2.3996061225507996,39.5
,,0.02632712817191272,0.1015934750675524,0.0015427140045270512,0.12946331724399215,0.262422940385257,0.20335589055157205,0.7847278845488328,-2.286775967676121,39.6
,,0.02413235312664187,0.09764761588424867,0.0013546786733593507,0.12313464768424989,0.26309300837790994,0.1959834504787285,0.7930149451894581,-2.3263900368653454,39.7
,,0.02413235312664187,0.09764761588424867,0.0013546786733593507,0.12313464768424989,0.2632376427776952,0.1959834504787285,0.7930149451894581,-2.3263900368653454,39.8
,,0.02413235312664187,0.09764761588424867,0.0013546786733593507,0.12313464768424989,0.2633822771774804,0.1959834504787285,0.7930149451894581,-2.3263900368653454,39.9
,,0.02413235312664187,0.09764761588424867,0.0013546786733593507,0.12313464768424989,0.2640581961425076,0.1959834504787285,0.7930149451894581,-2.3263900368653454,40.0
,,0.02743090410920985,0.1033612598728735,0.0014727904762476885,0.13226495445833103,0.26495944218179457,0.20739359281941708,0.7814712543936694,-2.269525049849595,40.1
,,0.02743090410920985,0.1033612598728735,0.0014727904762476885,0.13226495445833103,0.26586068822108155,0.20739359281941708,0.7814712543936694,-2.269525049849595,40.2
,,0.02743090410920985,0.1033612598728735,0.0014727904762476885,0.13226495445833103,0.2667619342603686,0.20739359281941708,0.7814712543936694,-2.269525049849595,40.3
,,0.02743090410920985,0.1033612598728735,0.0014727904762476885,0.13226495445833103,0.2676631802996556,0.20739359281941708,0.7814712543936694,-2.269525049849595,40.4
,,0.02743090410920985,0.1033612598728735,0.0014727904762476885,0.13226495445833103,0.2685644263389425,0.20739359281941708,0.7814712543936694,-2.269525049849595,40.5
,,0.023138455704208357,0.10067687544110651,0.0013792658273700628,0.12519459697268492,0.2684944694647315,0.18481992245445486,0.8041631018874743,-2.2958391437505714,40.6
,,0.023138455704208357,0.10067687544110651,0.0013792658273700628,0.12519459697268492,0.26842451259052047,0.18481992245445486,0.8041631018874743,-2.2958391437505714,40.7
,,0.023138455704208357,0.10067687544110651,0.0013792658273700628,0.12519459697268492,0.2683545557163094,0.18481992245445486,0.8041631018874743,-2.2958391437505714,40.8
,,0.023138455704208357,0.10067687544110651,0.0013792658273700628,0.12519459697268492,0.2681332168399319,0.18481992245445486,0.8041631018874743,-2.2958391437505714,40.9
,,0.023138455704208357,0.10067687544110651,0.0013792658273700628,0.12519459697268492,0.2679118779635544,0.18481992245445486,0.8041631018874743,-2.2958391437505714,41.0
,,0.023226135522585026,0.10508215929292017,0.0015081967329188236,0.12981649154842403,0.267581890212039,0.17891513817349802,0.8094669486097035,-2.253012765337859,41.1
,,0.023226135522585026,0.10508215929292017,0.0015081967329188236,0.12981649154842403,0.26725190246052355,0.17891513817349802,0.8094669486097035,-2.253012765337859,41.2
,,0.023226135522585026,0.10508215929292017,0.0015081967329188236,0.12981649154842403,0.2669219147090082,0.17891513817349802,0.8094669486097035,-2.253012765337859,41.3
,,0.023226135522585026,0.10508215929292017,0.0015081967329188236,0.12981649154842403,0.26659192695749284,0.17891513817349802,0.8094669486097035,-2.253012765337859,41.4
,,0.022400037643584864,0.10200998007245277,0.0014322925304638494,0.12584231024650147,0.26601869281144735,0.17800084565920152,0.8106175091082988,-2.2826846266366867,41.5
,,0.022400037643584864,0.10200998007245277,0.0014322925304638494,0.12584231024650147,0.26545927153639093,0.17800084565920152,0.8106175091082988,-2.2826846266366867,41.6
,,0.022400037643584864,0.10200998007245277,0.0014322925304638494,0.12584231024650147,0.2649131698155025,0.17800084565920152,0.8106175091082988,-2.2826846266366867,41.7
,,0.022400037643584864,0.10200998007245277,0.0014322925304638494,0.12584231024650147,0.26437991754687024,0.17800084565920152,0.8106175091082988,-2.2826846266366867,41.8
,,0.022400037643584864,0.10200998007245277,0.0014322925304638494,0.12584231024650147,0.26436887328232955,0.17800084565920152,0.8106175091082988,-2.2826846266366867,41.9
,,0.025179643320970044,0.11838101957910528,0.001623930370057459,0.14518459327013278,0.2642768087457227,0.17343192382762265,0.8153827958786485,-2.133846876991778,42.0
,,0.025179643320970044,0.11838101957910528,0.001623930370057459,0.14518459327013278,0.26418474420911586,0.17343192382762265,0.8153827958786485,-2.133846876991778,42.1
,,0.025179643320970044,0.11838101957910528,0.001623930370057459,0.14518459327013278,0.26409267967250905,0.17343192382762265,0.8153827958786485,-2.133846876991778,42.2
,,0.025179643320970044,0.11838101957910528,0.001623930370057459,0.14518459327013278,0.2639500087051329,0.17343192382762265,0.8153827958786485,-2.133846876991778,42.3
,,0.022510682950166106,0.10384929319547295,0.0015230897443619849,0.12788306589000106,0.26385513753483586,0.17602551826157128,0.812064462739728,-2.264814534696918,42.4
,,0.022510682950166106,0.10384929319547295,0.0015230897443619849,0.12788306589000106,0.26376026636453875,0.17602551826157128,0.812064462739728,-2.264814534696918,42.5
,,0.022510682950166106,0.10384929319547295,0.0015230897443619849,0.12788306589000106,0.2636653951942417,0.17602551826157128,0.812064462739728,-2.264814534696918,42.6
,,0.022510682950166106,0.10384929319547295,0.0015230897443619849,0.12788306589000106,0.26357052402394465,0.17602551826157128,0.812064462739728,-2.264814534696918,42.7
,,0.022510682950166106,0.10384929319547295,0.0015230897443619849,0.12788306589000106,0.26266750235314174,0.17602551826157128,0.812064462739728,-2.264814534696918,42.8
,,0.022796042410463003,0.10759305841970365,0.0016754848040316946,0.13206458563419837,0.2617069490601545,0.172612834099257,0.8147003066948042,-2.229399146163528,42.9
,,0.022796042410463003,0.10759305841970365,0.0016754848040316946,0.13206458563419837,0.2607463957671673,0.172612834099257,0.8147003066948042,-2.229399146163528,43.0
,,0.022796042410463003,0.10759305841970365,0.0016754848040316946,0.13206458563419837,0.2603385313960612,0.172612834099257,0.8147003066948042,-2.229399146163528,43.1
,,0.023137426185784737,0.10390588756799066,0.0016093030594446828,0.12865261681322007,0.2600577724287932,0.17984419407011382,0.807646903279417,-2.2642697167654506,43.2
,,0.023137426185784737,0.10390588756799066,0.0016093030594446828,0.12865261681322007,0.25977701346152515,0.17984419407011382,0.807646903279417,-2.2642697167654506,43.3
,,0.023137426185784737,0.10390588756799066,0.0016093030594446828,0.12865261681322007,0.2594962544942572,0.17984419407011382,0.807646903279417,-2.2642697167654506,43.4
,,0.023137426185784737,0.10390588756799066,0.0016093030594446828,0.12865261681322007,0.25921549552698914,0.17984419407011382,0.807646903279417,-2.2642697167654506,43.5
,,0.023137426185784737,0.10390588756799066,0.0016093030594446828,0.12865261681322007,0.25868757878315807,0.17984419407011382,0.807646903279417,-2.2642697167654506,43.6
,,0.023137426185784737,0.10390588756799066,0.0016093030594446828,0.12865261681322007,0.258159662039327,0.17984419407011382,0.807646903279417,-2.2642697167654506,43.7
,,0.023102079211193404,0.10457010629464952,0.0017487027229564182,0.12942088822879932,0.25761112833067035,0.17850348214541634,0.8079847675730919,-2.257897558879381,43.8
,,0.023102079211193404,0.10457010629464952,0.0017487027229564182,0.12942088822879932,0.2571845374900609,0.17850348214541634,0.8079847675730919,-2.257897558879381,43.9
,,0.01739566597447268,0.10194163771848247,0.001395747019340354,0.1207330507122955,0.25618981158152704,0.1440837108964157,0.8443556848522564,-2.2833548086854343,44.0
,,0.023102079211193404,0.10457010629464952,0.0017487027229564182,0.12942088822879932,0.25578906731398987,0.17850348214541634,0.8079847675730919,-2.257897558879381,44.1
,,0.016703488430938045,0.09807031116643905,0.0013328483361676577,0.11610664793354476,0.25482875824801676,0.14386332503973862,0.8446571571213644,-2.3220705966815545,44.2
,,0.016703488430938045,0.09807031116643905,0.0013328483361676577,0.11610664793354476,0.25388978938350976,0.14386332503973862,0.8446571571213644,-2.3220705966815545,44.3
,,0.016703488430938045,0.09807031116643905,0.0013328483361676577,0.11610664793354476,0.252540513053676,0.14386332503973862,0.8446571571213644,-2.3220705966815545,44.4
,,0.016703488430938045,0.09807031116643905,0.0013328483361676577,0.11610664793354476,0.2511912367238422,0.14386332503973862,0.8446571571213644,-2.3220705966815545,44.5
,,0.016703488430938045,0.09807031116643905,0.0013328483361676577,0.11610664793354476,0.24984196039400836,0.14386332503973862,0.8446571571213644,-2.3220705966815545,44.6
,,0.016703488430938045,0.09807031116643905,0.0013328483361676577,0.11610664793354476,0.2484926840641746,0.14386332503973862,0.8446571571213644,-2.3220705966815545,44.7
,,0.01480086817817058,0.09669060695311411,0.0014299582931924853,0.11292143342447718,0.24697671290307208,0.13107226617052756,0.8562644311257492,-2.3362390171962777,44.8
,,,0.08031929299797273,0.0014576429442915665,0.0817769359422643,0.24649878918537046,,0.9821753783325816,-2.521745425393535,44.9
,,0.01480086817817058,0.09669060695311411,0.0014299582931924853,0.11292143342447718,0.2449657846404353,0.13107226617052756,0.8562644311257492,-2.3362390171962777,45.0
,,0.020174232100624773,0.07759706640673109,0.0014023594667768658,0.09917365797413272,0.2446340444446258,0.20342329316809893,0.7824362637402221,-2.556225656544525,45.1
,,0.020174232100624773,0.07759706640673109,0.0014023594667768658,0.09917365797413272,0.24413577347958576,0.20342329316809893,0.7824362637402221,-2.556225656544525,45.2
,,0.020174232100624773,0.07759706640673109,0.0014023594667768658,0.09917365797413272,0.24363750251454575,0.20342329316809893,0.7824362637402221,-2.556225656544525,45.3
,,0.020174232100624773,0.07759706640673109,0.0014023594667768658,0.09917365797413272,0.24313923154950576,0.20342329316809893,0.7824362637402221,-2.556225656544525,45.4
,,0.020174232100624773,0.07759706640673109,0.0014023594667768658,0.09917365797413272,0.24264096058446571,0.20342329316809893,0.7824362637402221,-2.556225656544525,45.5
,,0.020174232100624773,0.07759706640673109,0.0014023594667768658,0.09917365797413272,0.24222019165913974,0.20342329316809893,0.7824362637402221,-2.556225656544525,45.6
,,0.01930122704944582,0.07268517793995469,0.0014504646742561087,0.09343686966365661,0.24178437602261402,0.20656970978291736,0.7779068177433438,-2.621617795009512,45.7
,,0.01930122704944582,0.07268517793995469,0.0014504646742561087,0.09343686966365661,0.24144625519120946,0.20656970978291736,0.7779068177433438,-2.621617795009512,45.8
,,0.01930122704944582,0.07268517793995469,0.0014504646742561087,0.09343686966365661,0.24110813435980488,0.20656970978291736,0.7779068177433438,-2.621617795009512,45.9
,,0.01847553269875629,0.06475899784755035,0.0012405704144039537,0.08447510096071059,0.24099193707988004,0.21870980310931226,0.7666045628956369,-2.7370826251604083,46.0
,,0.01847553269875629,0.06475899784755035,0.0012405704144039537,0.08447510096071059,0.24087573979995516,0.21870980310931226,0.7666045628956369,-2.7370826251604083,46.1
,,0.01847553269875629,0.06475899784755035,0.0012405704144039537,0.08447510096071059,0.24071348849290686,0.21870980310931226,0.7666045628956369,-2.7370826251604083,46.2
,,0.01847553269875629,0.06475899784755035,0.0012405704144039537,0.08447510096071059,0.2405512371858585,0.21870980310931226,0.7666045628956369,-2.7370826251604083,46.3
,,0.01847553269875629,0.06475899784755035,0.0012405704144039537,0.08447510096071059,0.2403889858788102,0.21870980310931226,0.7666045628956369,-2.7370826251604083,46.4
,,0.01847553269875629,0.06475899784755035,0.0012405704144039537,0.08447510096071059,0.24022673457176189,0.21870980310931226,0.7666045628956369,-2.7370826251604083,46.5
,,0.017501379497395587,0.05976709943461511,0.0012578677391439817,0.07852634667115467,0.24014908493353532,0.22287270756000194,0.7611088757879214,-2.8172999461069517,46.6
,,0.017501379497395587,0.05976709943461511,0.0012578677391439817,0.07852634667115467,0.24022061389644067,0.22287270756000194,0.7611088757879214,-2.8172999461069517,46.7
,,0.017501379497395587,0.05976709943461511,0.0012578677391439817,0.07852634667115467,0.24029214285934603,0.22287270756000194,0.7611088757879214,-2.8172999461069517,46.8
,,0.017501379497395587,0.05976709943461511,0.0012578677391439817,0.07852634667115467,0.24036367182225132,0.22287270756000194,0.7611088757879214,-2.8172999461069517,46.9
,,0.016611558258836045,0.05420107935193687,0.001079433836129648,0.07189207144690256,0.24058861534944195,0.23106245131780448,0.7539229050030676,-2.9150544564924448,47.0
,,0.016611558258836045,0.05420107935193687,0.001079433836129648,0.07189207144690256,0.24081355887663253,0.23106245131780448,0.7539229050030676,-2.9150544564924448,47.1
,,0.016611558258836045,0.05420107935193687,0.001079433836129648,0.07189207144690256,0.2410878476761298,0.23106245131780448,0.7539229050030676,-2.9150544564924448,47.2
,,0.016611558258836045,0.05420107935193687,0.001079433836129648,0.07189207144690256,0.24136213647562707,0.23106245131780448,0.7539229050030676,-2.9150544564924448,47.3
,,0.016611558258836045,0.05420107935193687,0.001079433836129648,0.07189207144690256,0.24163642527512436,0.23106245131780448,0.7539229050030676,-2.9150544564924448,47.4
,,0.015954103047139654,0.05053484543740494,0.001093756390714898,0.06758270487525948,0.2420143633107927,0.23606783831139755,0.7477481928354219,-2.985092171985865,47.5
,,0.015954103047139654,0.05053484543740494,0.001093756390714898,0.06758270487525948,0.24239230134646106,0.23606783831139755,0.7477481928354219,-2.985092171985865,47.6
,,0.015954103047139654,0.05053484543740494,0.001093756390714898,0.06758270487525948,0.2429231883596047,0.23606783831139755,0.7477481928354219,-2.985092171985865,47.7
,,0.005537130944461581,0.05232908047059387,0.000787947196060682,0.05865415861111613,0.24109574565805564,0.0944030410728999,0.8921631766562664,-2.95020303049722,47.8
,,0.015954103047139654,0.05053484543740494,0.001093756390714898,0.06758270487525948,0.24162663267119927,0.23606783831139755,0.7477481928354219,-2.985092171985865,47.9
,,0.014884055150722726,0.046825639911358234,0.0009610092935967945,0.06267070435567776,0.24218174697818587,0.2374962161945812,0.7471695171256837,-3.0613243647259676,48.0
,,0.014884055150722726,0.046825639911358234,0.0009610092935967945,0.06267070435567776,0.24284151442483481,0.2374962161945812,0.7471695171256837,-3.0613243647259676,48.1
,,0.014884055150722726,0.046825639911358234,0.0009610092935967945,0.06267070435567776,0.24350128187148373,0.2374962161945812,0.7471695171256837,-3.0613243647259676,48.2
,,0.004223995828427763,0.0440851737406381,0.000719418065513906,0.04902858763457977,0.241666141545162,0.08615373259189271,0.8991728268661141,-3.1216317494134147,48.3
,,0.004223995828427763,0.0440851737406381,0.000719418065513906,0.04902858763457977,0.2398310012188403,0.08615373259189271,0.8991728268661141,-3.1216317494134147,48.4
,,0.004223995828427763,0.0440851737406381,0.000719418065513906,0.04902858763457977,0.23770022844349786,0.08615373259189271,0.8991728268661141,-3.1216317494134147,48.5
,,0.004223995828427763,0.0440851737406381,0.000719418065513906,0.04902858763457977,0.23586508811717613,0.08615373259189271,0.8991728268661141,-3.1216317494134147,48.6
,,0.004223995828427763,0.0440851737406381,0.000719418065513906,0.04902858763457977,0.2341648328874644,0.08615373259189271,0.8991728268661141,-3.1216317494134147,48.7
,,0.004223995828427763,0.0440851737406381,0.000719418065513906,0.04902858763457977,0.23246457765775272,0.08615373259189271,0.8991728268661141,-3.1216317494134147,48.8
,,,0.04143954521200888,0.0006058737635053177,0.04204541897551419,0.23229784392387878,,0.985590017217853,-3.183519655704816,48.9
,,,0.04143954521200888,0.0006058737635053177,0.04204541897551419,0.23212727723060547,,0.985590017217853,-3.183519655704816,49.0
,,0.012031236620568356,0.0371206259087006,0.0007964754081782083,0.049948337937447164,0.23280225724788786,0.24087361296457319,0.7431804028231859,-3.2935825094417317,49.1
,,0.012031236620568356,0.0371206259087006,0.0007964754081782083,0.049948337937447164,0.23347723726517025,0.24087361296457319,0.7431804028231859,-3.2935825094417317,49.2
,,0.012031236620568356,0.0371206259087006,0.0007964754081782083,0.049948337937447164,0.23415221728245258,0.24087361296457319,0.7431804028231859,-3.2935825094417317,49.3
,,0.012031236620568356,0.0371206259087006,0.0007964754081782083,0.049948337937447164,0.23482719729973495,0.24087361296457319,0.7431804028231859,-3.2935825094417317,49.4
,,0.012031236620568356,0.0371206259087006,0.0007964754081782083,0.049948337937447164,0.23550217731701736,0.24087361296457319,0.7431804028231859,-3.2935825094417317,49.5
,,0.012031236620568356,0.0371206259087006,0.0007964754081782083,0.049948337937447164,0.23658588995043137,0.24087361296457319,0.7431804028231859,-3.2935825094417317,49.6
,,0.012031236620568356,0.0371206259087006,0.0007964754081782083,0.049948337937447164,0.23766960258384534,0.24087361296457319,0.7431804028231859,-3.2935825094417317,49.7
,,0.010852514709466228,0.03545388949040064,0.0007408662909757648,0.04704727049084263,0.2385463075314878,0.23067256816904141,0.7535801571592011,-3.339522314380774,49.8
,,0.010434880193838088,0.03361191193264794,0.0007006050459478639,0.044747397172433895,0.23947300807092375,0.23319524381780965,0.7511478668384797,-3.3928747530359864,49.9
,,0.010434880193838088,0.03361191193264794,0.0007006050459478639,0.044747397172433895,0.2403997086103596,0.23319524381780965,0.7511478668384797,-3.3928747530359864,50.0
,,0.010434880193838088,0.03361191193264794,0.0007006050459478639,0.044747397172433895,0.24142756499906184,0.23319524381780965,0.7511478668384797,-3.3928747530359864,50.1
,,0.010434880193838088,0.03361191193264794,0.0007006050459478639,0.044747397172433895,0.2424554213877641,0.23319524381780965,0.7511478668384797,-3.3928747530359864,50.2
,,0.010434880193838088,0.03361191193264794,0.0007006050459478639,0.044747397172433895,0.24348327777646628,0.23319524381780965,0.7511478668384797,-3.3928747530359864,50.3
,,0.010434880193838088,0.03361191193264794,0.0007006050459478639,0.044747397172433895,0.24451113416516854,0.23319524381780965,0.7511478668384797,-3.3928747530359864,50.4
,,0.010434880193838088,0.03361191193264794,0.0007006050459478639,0.044747397172433895,0.24555556085021918,0.23319524381780965,0.7511478668384797,-3.3928747530359864,50.5
,,0.010434880193838088,0.03361191193264794,0.0007006050459478639,0.044747397172433895,0.24659998753526985,0.23319524381780965,0.7511478668384797,-3.3928747530359864,50.6
,,0.008906966869647918,0.03144122085203033,0.0006574675867463412,0.041005655308424586,0.24733220300089442,0.217213133228918,0.7667532835542991,-3.4596354810035934,50.7
,,0.008659848159065753,0.030125301034073116,0.0006113170635335633,0.03939646625667243,0.2481123666764587,0.21981281525723306,0.7646701315240655,-3.5023898943889433,50.8
,,0.008659848159065753,0.030125301034073116,0.0006113170635335633,0.03939646625667243,0.24889253035202288,0.21981281525723306,0.7646701315240655,-3.5023898943889433,50.9
,,0.008659848159065753,0.030125301034073116,0.0006113170635335633,0.03939646625667243,0.24975185176466325,0.21981281525723306,0.7646701315240655,-3.5023898943889433,51.0
,,0.008659848159065753,0.030125301034073116,0.0006113170635335633,0.03939646625667243,0.2506111731773036,0.21981281525723306,0.7646701315240655,-3.5023898943889433,51.1
,,0.008659848159065753,0.030125301034073116,0.0006113170635335633,0.03939646625667243,0.25147049458994386,0.21981281525723306,0.7646701315240655,-3.5023898943889433,51.2
,,0.008659848159065753,0.030125301034073116,0.0006113170635335633,0.03939646625667243,0.2523298160025842,0.21981281525723306,0.7646701315240655,-3.5023898943889433,51.3
,,0.008659848159065753,0.030125301034073116,0.0006113170635335633,0.03939646625667243,0.2531424364640554,0.21981281525723306,0.7646701315240655,-3.5023898943889433,51.4
,,0.007449858847260486,0.028727991930558156,0.0005949358762203505,0.03677278665403899,0.2536316439417975,0.20259163161468538,0.7812296685816378,-3.5498833029495755,51.5
,,0.00854817870687809,0.029097018050562487,0.0005510559111767874,0.03819625266861736,0.2545169193849821,0.22379626559286556,0.7617767717425603,-3.5371195825446162,51.6
,,0.0070676075594891166,0.027020173314523846,0.0005304452830390653,0.034618226157052026,0.2550319173549168,0.204158570327249,0.7805187126556341,-3.611171532165554,51.7
,,0.0070676075594891166,0.027020173314523846,0.0005304452830390653,0.034618226157052026,0.25554691532485146,0.204158570327249,0.7805187126556341,-3.611171532165554,51.8
,,0.0070676075594891166,0.027020173314523846,0.0005304452830390653,0.034618226157052026,0.2561181223509432,0.204158570327249,0.7805187126556341,-3.611171532165554,51.9
,,0.0070676075594891166,0.027020173314523846,0.0005304452830390653,0.034618226157052026,0.25668932937703504,0.204158570327249,0.7805187126556341,-3.611171532165554,52.0
,,0.0070676075594891166,0.027020173314523846,0.0005304452830390653,0.034618226157052026,0.25726053640312685,0.204158570327249,0.7805187126556341,-3.611171532165554,52.1
,,0.0070676075594891166,0.027020173314523846,0.0005304452830390653,0.034618226157052026,0.2577075599886872,0.204158570327249,0.7805187126556341,-3.611171532165554,52.2
,,0.0070676075594891166,0.027020173314523846,0.0005304452830390653,0.034618226157052026,0.25815458357424753,0.204158570327249,0.7805187126556341,-3.611171532165554,52.3
,,0.0070676075594891166,0.027020173314523846,0.0005304452830390653,0.034618226157052026,0.2586016071598079,0.204158570327249,0.7805187126556341,-3.611171532165554,52.4
,,0.006258868669790342,0.025431508580088656,0.00047371409094258124,0.03216409134082158,0.25887091865302714,0.19459180747465413,0.790680150438817,-3.671766378457122,52.5
,,0.007253446899596719,0.026561534463058978,0.00047254581326092843,0.03428752717591663,0.25945027624430844,0.2115476821172307,0.7746704603916627,-3.62829118258418,52.6
,,0.0060017410147000265,0.02487503648478015,0.0004678244163676511,0.03134460191584783,0.25966405680474547,0.1914760643894331,0.7935987367637722,-3.6938905292137263,52.7
,,0.0060017410147000265,0.02487503648478015,0.0004678244163676511,0.03134460191584783,0.25989798037679357,0.1914760643894331,0.7935987367637722,-3.6938905292137263,52.8
,,0.0060017410147000265,0.02487503648478015,0.0004678244163676511,0.03134460191584783,0.2601319039488417,0.1914760643894331,0.7935987367637722,-3.6938905292137263,52.9
,,0.0060017410147000265,0.02487503648478015,0.0004678244163676511,0.03134460191584783,0.26094376927480534,0.1914760643894331,0.7935987367637722,-3.6938905292137263,53.0
,,0.0060017410147000265,0.02487503648478015,0.0004678244163676511,0.03134460191584783,0.2611776928468535,0.1914760643894331,0.7935987367637722,-3.6938905292137263,53.1
,,0.0060017410147000265,0.02487503648478015,0.0004678244163676511,0.03134460191584783,0.26199325728781975,0.1914760643894331,0.7935987367637722,-3.6938905292137263,53.2
,,0.0036261711120348485,0.03330379780311182,0.0005354674185421026,0.037465436333688776,0.2612870509567948,0.09678710477940462,0.8889205908744529,-3.4020838403572378,53.3
,,0.0036261711120348485,0.03330379780311182,0.0005354674185421026,0.037465436333688776,0.2605808446257698,0.09678710477940462,0.8889205908744529,-3.4020838403572378,53.4
,,0.0036261711120348485,0.03330379780311182,0.0005354674185421026,0.037465436333688776,0.25987463829474483,0.09678710477940462,0.8889205908744529,-3.4020838403572378,53.5
,,0.005446215597633576,0.023585638324110102,0.0004291593321518671,0.029461013253895545,0.26057108435931836,0.18486178838107134,0.8005711860908735,-3.747117297778149,53.6
,,0.005446215597633576,0.023585638324110102,0.0004291593321518671,0.029461013253895545,0.2612675304238919,0.18486178838107134,0.8005711860908735,-3.747117297778149,53.7
,,0.005446215597633576,0.023585638324110102,0.0004291593321518671,0.029461013253895545,0.26216221834091474,0.18486178838107134,0.8005711860908735,-3.747117297778149,53.8
,,0.005446215597633576,0.023585638324110102,0.0004291593321518671,0.029461013253895545,0.26180710640590754,0.18486178838107134,0.8005711860908735,-3.747117297778149,53.9
,,0.005446215597633576,0.023585638324110102,0.0004291593321518671,0.029461013253895545,0.2626916274147825,0.18486178838107134,0.8005711860908735,-3.747117297778149,54.0
,,0.005446215597633576,0.023585638324110102,0.0004291593321518671,0.029461013253895545,0.2623612333432917,0.18486178838107134,0.8005711860908735,-3.747117297778149,54.1
,,0.005446215597633576,0.023585638324110102,0.0004291593321518671,0.029461013253895545,0.26203083927180093,0.18486178838107134,0.8005711860908735,-3.747117297778149,54.2
,,0.004280458681681556,0.031150864126563264,0.0005295897596566687,0.03596091256790149,0.26063792501807653,0.1190308692416852,0.8662423142834355,-3.4689132933127937,54.3
,,0.004280458681681556,0.031150864126563264,0.0005295897596566687,0.03596091256790149,0.2592450107643521,0.1190308692416852,0.8662423142834355,-3.4689132933127937,54.4
,,0.005169993899287208,0.02252026824701517,0.0004096791352487781,0.028099941281551154,0.25889937054242584,0.18398593247885314,0.8014347083992205,-3.793339564280027,54.5
,,0.005169993899287208,0.02252026824701517,0.0004096791352487781,0.028099941281551154,0.25855373032049944,0.18398593247885314,0.8014347083992205,-3.793339564280027,54.6
,,0.005169993899287208,0.02252026824701517,0.0004096791352487781,0.028099941281551154,0.25814492505041664,0.18398593247885314,0.8014347083992205,-3.793339564280027,54.7
,,0.005169993899287208,0.02252026824701517,0.0004096791352487781,0.028099941281551154,0.2577361197803338,0.18398593247885314,0.8014347083992205,-3.793339564280027,54.8
,,0.005169993899287208,0.02252026824701517,0.0004096791352487781,0.028099941281551154,0.25732731451025087,0.18398593247885314,0.8014347083992205,-3.793339564280027,54.9
,,0.005169993899287208,0.02252026824701517,0.0004096791352487781,0.028099941281551154,0.25669406383014876,0.18398593247885314,0.8014347083992205,-3.793339564280027,55.0
,,0.005169993899287208,0.02252026824701517,0.0004096791352487781,0.028099941281551154,0.25606081315004664,0.18398593247885314,0.8014347083992205,-3.793339564280027,55.1
,,0.005169993899287208,0.02252026824701517,0.0004096791352487781,0.028099941281551154,0.2554275624699445,0.18398593247885314,0.8014347083992205,-3.793339564280027,55.2
,,,0.02843208154285739,0.0005429878705160765,0.028975069413373467,0.2550842382837263,,0.9812601701562979,-3.560237139578126,55.3
,,0.0050536335825525636,0.02793995566056412,0.0005110229407242574,0.03350461218384094,0.2538839856659051,0.15083396741986163,0.8339137163342359,-3.5776975121064734,55.4
,,0.005553690961030551,0.027184595099435147,0.000521912697713769,0.03326019875817947,0.2529529368405734,0.16697708277118362,0.8173311078831065,-3.6051048227591007,55.5
,,0.005553690961030551,0.027184595099435147,0.000521912697713769,0.03326019875817947,0.25193534148047,0.16697708277118362,0.8173311078831065,-3.6051048227591007,55.6
,,0.005553690961030551,0.027184595099435147,0.000521912697713769,0.03326019875817947,0.25091774612036666,0.16697708277118362,0.8173311078831065,-3.6051048227591007,55.7
,,0.005553690961030551,0.027184595099435147,0.000521912697713769,0.03326019875817947,0.24990015076026328,0.16697708277118362,0.8173311078831065,-3.6051048227591007,55.8
,,0.005553690961030551,0.027184595099435147,0.000521912697713769,0.03326019875817947,0.2488825554001599,0.16697708277118362,0.8173311078831065,-3.6051048227591007,55.9
,,0.005553690961030551,0.027184595099435147,0.000521912697713769,0.03326019875817947,0.24770801870417855,0.16697708277118362,0.8173311078831065,-3.6051048227591007,56.0
,,0.005553690961030551,0.027184595099435147,0.000521912697713769,0.03326019875817947,0.24653348200819716,0.16697708277118362,0.8173311078831065,-3.6051048227591007,56.1
,,0.005486190233311811,0.020831416857811508,0.0003939573687465774,0.026711564459869896,0.24603786300371577,0.20538633151023356,0.7798650988453925,-3.871293005964354,56.2
,,0.005486190233311811,0.020831416857811508,0.0003939573687465774,0.026711564459869896,0.24554224399923438,0.20538633151023356,0.7798650988453925,-3.871293005964354,56.3
,,0.00517059882507318,0.020925118456472033,0.00044779099681626375,0.02654350827836148,0.24485971396205014,0.19479711464095728,0.7883328095529252,-3.866805001620374,56.4
,,0.00517059882507318,0.020925118456472033,0.00044779099681626375,0.02654350827836148,0.24407115194763343,0.19479711464095728,0.7883328095529252,-3.866805001620374,56.5
,,0.00517059882507318,0.020925118456472033,0.00044779099681626375,0.02654350827836148,0.24328258993321672,0.19479711464095728,0.7883328095529252,-3.866805001620374,56.6
,,0.00517059882507318,0.020925118456472033,0.00044779099681626375,0.02654350827836148,0.2424940279188,0.19479711464095728,0.7883328095529252,-3.866805001620374,56.7
,,0.00517059882507318,0.020925118456472033,0.00044779099681626375,0.02654350827836148,0.2441180100952758,0.19479711464095728,0.7883328095529252,-3.866805001620374,56.8
,,0.00517059882507318,0.020925118456472033,0.00044779099681626375,0.02654350827836148,0.24332944808085913,0.19479711464095728,0.7883328095529252,-3.866805001620374,56.9
,,0.00517059882507318,0.020925118456472033,0.00044779099681626375,0.02654350827836148,0.24251610182331573,0.19479711464095728,0.7883328095529252,-3.866805001620374,57.0
,,0.007006806525868411,0.021820795862220212,0.000479480028270402,0.029307082416359025,0.24255340762322009,0.23908236331151328,0.7445570852880252,-3.8248918252634434,57.1
,,0.007006806525868411,0.021820795862220212,0.000479480028270402,0.029307082416359025,0.2425907134231245,0.23908236331151328,0.7445570852880252,-3.8248918252634434,57.2
,,0.007006806525868411,0.021820795862220212,0.000479480028270402,0.029307082416359025,0.245180281197677,0.23908236331151328,0.7445570852880252,-3.8248918252634434,57.3
,,0.005386382712268347,0.020420940003597954,0.0005058512679848939,0.026313173983851194,0.24711077760808037,0.20470288820246674,0.7760728529416712,-3.8911944338282423,57.4
,,0.005386382712268347,0.020420940003597954,0.0005058512679848939,0.026313173983851194,0.24904127401848375,0.20470288820246674,0.7760728529416712,-3.8911944338282423,57.5
,,0.005386382712268347,0.020420940003597954,0.0005058512679848939,0.026313173983851194,0.25097177042888713,0.20470288820246674,0.7760728529416712,-3.8911944338282423,57.6
,,0.005386382712268347,0.020420940003597954,0.0005058512679848939,0.026313173983851194,0.2529022668392905,0.20470288820246674,0.7760728529416712,-3.8911944338282423,57.7
,,0.005386382712268347,0.020420940003597954,0.0005058512679848939,0.026313173983851194,0.25483276324969384,0.20470288820246674,0.7760728529416712,-3.8911944338282423,57.8
,,0.007965607708545621,0.01968804887778878,0.0004636921337986048,0.028117348720133006,0.25653456158218724,0.2832986775471461,0.7002100046399982,-3.9277434832781797,57.9
,,0.007965607708545621,0.01968804887778878,0.0004636921337986048,0.028117348720133006,0.2581981172555235,0.2832986775471461,0.7002100046399982,-3.9277434832781797,58.0
,,0.007965607708545621,0.01968804887778878,0.0004636921337986048,0.028117348720133006,0.25910237698307226,0.2832986775471461,0.7002100046399982,-3.9277434832781797,58.1
,,0.007965607708545621,0.01968804887778878,0.0004636921337986048,0.028117348720133006,0.2600066367106211,0.2832986775471461,0.7002100046399982,-3.9277434832781797,58.2
,,0.005728113898567114,0.02025546374733728,0.0005804831736281907,0.026564060819532585,0.25954238524489154,0.21563397017805444,0.7625138296793619,-3.899330707139702,58.3
,,0.005728113898567114,0.02025546374733728,0.0005804831736281907,0.026564060819532585,0.259078133779162,0.21563397017805444,0.7625138296793619,-3.899330707139702,58.4
,,0.005728113898567114,0.02025546374733728,0.0005804831736281907,0.026564060819532585,0.25861388231343246,0.21563397017805444,0.7625138296793619,-3.899330707139702,58.5
,,0.005728113898567114,0.02025546374733728,0.0005804831736281907,0.026564060819532585,0.25814963084770287,0.21563397017805444,0.7625138296793619,-3.899330707139702,58.6
,,0.006205598957710424,0.020287413059557266,0.000588049726042253,0.027081061743309945,0.25794482513477257,0.22914902733617684,0.7491365461167353,-3.8977546315698453,58.7
,,0.006205598957710424,0.020287413059557266,0.000588049726042253,0.027081061743309945,0.25794237524950664,0.22914902733617684,0.7491365461167353,-3.8977546315698453,58.8
,,0.006205598957710424,0.020287413059557266,0.000588049726042253,0.027081061743309945,0.25789105326889195,0.22914902733617684,0.7491365461167353,-3.8977546315698453,58.9
,,0.006205598957710424,0.020287413059557266,0.000588049726042253,0.027081061743309945,0.25783973128827736,0.22914902733617684,0.7491365461167353,-3.8977546315698453,59.0
,,0.006205598957710424,0.020287413059557266,0.000588049726042253,0.027081061743309945,0.2577884093076628,0.22914902733617684,0.7491365461167353,-3.8977546315698453,59.1
,,0.009440852291083983,0.019707483903530974,0.000474202931035543,0.0296225391256505,0.25968276036956633,0.3187050323754671,0.6652867878724831,-3.9267568217992377,59.2
,,0.009440852291083983,0.019707483903530974,0.000474202931035543,0.0296225391256505,0.26157711143147,0.3187050323754671,0.6652867878724831,-3.9267568217992377,59.3
,,0.009440852291083983,0.019707483903530974,0.000474202931035543,0.0296225391256505,0.2634714624933736,0.3187050323754671,0.6652867878724831,-3.9267568217992377,59.4
,,0.009440852291083983,0.019707483903530974,0.000474202931035543,0.0296225391256505,0.2653658135552772,0.3187050323754671,0.6652867878724831,-3.9267568217992377,59.5
,,0.010054651724404149,0.01963723955647443,0.00048802764445260373,0.030179918925331183,0.26763061985489806,0.3331570157388623,0.6506723760610281,-3.9303275380485276,59.6
,,0.010054651724404149,0.01963723955647443,0.00048802764445260373,0.030179918925331183,0.270200621391486,0.3331570157388623,0.6506723760610281,-3.9303275380485276,59.7
,,0.010054651724404149,0.01963723955647443,0.00048802764445260373,0.030179918925331183,0.27272375220599804,0.3331570157388623,0.6506723760610281,-3.9303275380485276,59.8
,,0.010054651724404149,0.01963723955647443,0.00048802764445260373,0.030179918925331183,0.2752468830205101,0.3331570157388623,0.6506723760610281,-3.9303275380485276,59.9
,,0.010054651724404149,0.01963723955647443,0.00048802764445260373,0.030179918925331183,0.2777700138350222,0.3331570157388623,0.6506723760610281,-3.9303275380485276,60.0
,,0.006122848394679031,0.020299183058769255,0.000737541749978106,0.02715957320342639,0.2779292196709398,0.2254397868780422,0.7474043464058691,-3.897174637154565,60.1
,,0.006122848394679031,0.020299183058769255,0.000737541749978106,0.02715957320342639,0.2780884255068575,0.2254397868780422,0.7474043464058691,-3.897174637154565,60.2
,,0.006122848394679031,0.020299183058769255,0.000737541749978106,0.02715957320342639,0.27824763134277514,0.2254397868780422,0.7474043464058691,-3.897174637154565,60.3
,,0.006122848394679031,0.020299183058769255,0.000737541749978106,0.02715957320342639,0.27840683717869275,0.2254397868780422,0.7474043464058691,-3.897174637154565,60.4
,,0.006377896295825567,0.020508911315908866,0.0007353841335541943,0.027622191745288627,0.2789872604604458,0.23089754624244876,0.7424795072392097,-3.8868957889547073,60.5
,,0.006377896295825567,0.020508911315908866,0.0007353841335541943,0.027622191745288627,0.2791805161804741,0.23089754624244876,0.7424795072392097,-3.8868957889547073,60.6
,,0.006377896295825567,0.020508911315908866,0.0007353841335541943,0.027622191745288627,0.27973572853165685,0.23089754624244876,0.7424795072392097,-3.8868957889547073,60.7
,,0.00607265187590339,0.020166753616797387,0.0007817179102338237,0.0270211234029346,0.28018015690484077,0.22473720967662936,0.7463329083722403,-3.903719891046016,60.8
,,0.006377896295825567,0.020508911315908866,0.0007353841335541943,0.027622191745288627,0.2807353692560235,0.23089754624244876,0.7424795072392097,-3.8868957889547073,60.9
,,0.006014487134541491,0.020119849564148744,0.0007915609199495041,0.02692589761863974,0.2811552029324706,0.22337183405086922,0.7472304117438433,-3.906048410709528,61.0
,,0.006014487134541491,0.020119849564148744,0.0007915609199495041,0.02692589761863974,0.28157503660891764,0.22337183405086922,0.7472304117438433,-3.906048410709528,61.1
,,0.006014487134541491,0.020119849564148744,0.0007915609199495041,0.02692589761863974,0.28199487028536474,0.22337183405086922,0.7472304117438433,-3.906048410709528,61.2
,,0.006221684215962316,0.020424273280291082,0.0007788724442861212,0.02742482994053952,0.28247862591185646,0.2268631830881617,0.7447365516786604,-3.89103121878136,61.3
,,0.006221684215962316,0.020424273280291082,0.0007788724442861212,0.02742482994053952,0.28296238153834824,0.2268631830881617,0.7447365516786604,-3.89103121878136,61.4
,,0.006221684215962316,0.020424273280291082,0.0007788724442861212,0.02742482994053952,0.28361985572701615,0.2268631830881617,0.7447365516786604,-3.89103121878136,61.5
,,0.006221684215962316,0.020424273280291082,0.0007788724442861212,0.02742482994053952,0.28397425114566827,0.2268631830881617,0.7447365516786604,-3.89103121878136,61.6
,,0.006221684215962316,0.020424273280291082,0.0007788724442861212,0.02742482994053952,0.28468600838098845,0.2268631830881617,0.7447365516786604,-3.89103121878136,61.7
,,0.006221684215962316,0.020424273280291082,0.0007788724442861212,0.02742482994053952,0.28539776561630864,0.2268631830881617,0.7447365516786604,-3.89103121878136,61.8
,,,0.02031389153109536,0.0004966622550542322,0.020810553786149592,0.28589915310278435,,0.9761341163643235,-3.8964503150923866,61.9
,,,0.02031389153109536,0.0004966622550542322,0.020810553786149592,0.28641206673837444,,0.9761341163643235,-3.8964503150923866,62.0
,,0.005886541033638385,0.020206876398673183,0.0008063572062291829,0.026899774638540753,0.28698721717346726,0.21883235501922835,0.7511912895255898,-3.901732316727382,62.1
,,0.005886541033638385,0.020206876398673183,0.0008063572062291829,0.026899774638540753,0.2875623676085601,0.21883235501922835,0.7511912895255898,-3.901732316727382,62.2
,,0.005886541033638385,0.020206876398673183,0.0008063572062291829,0.026899774638540753,0.2896592888156441,0.21883235501922835,0.7511912895255898,-3.901732316727382,62.3
,,0.005886541033638385,0.020206876398673183,0.0008063572062291829,0.026899774638540753,0.29175621002272817,0.21883235501922835,0.7511912895255898,-3.901732316727382,62.4
,,0.005886541033638385,0.020206876398673183,0.0008063572062291829,0.026899774638540753,0.2938531312298122,0.21883235501922835,0.7511912895255898,-3.901732316727382,62.5
,,0.005886541033638385,0.020206876398673183,0.0008063572062291829,0.026899774638540753,0.29454740004129776,0.21883235501922835,0.7511912895255898,-3.901732316727382,62.6
,,0.005886541033638385,0.020206876398673183,0.0008063572062291829,0.026899774638540753,0.2952416688527833,0.21883235501922835,0.7511912895255898,-3.901732316727382,62.7
,,0.0053886656017533155,0.019750585442172265,0.0008490579273161744,0.025988308971241755,0.295723546695364,0.20734960507497144,0.7599796302263432,-3.9245721454327067,62.8
,,0.005477078588775195,0.019985841751013055,0.0008201463662818739,0.026283066706070123,0.2962193577680171,0.2083881097296098,0.7604075268125879,-3.9127311685658284,62.9
,,0.005477078588775195,0.019985841751013055,0.0008201463662818739,0.026283066706070123,0.29671516884067023,0.2083881097296098,0.7604075268125879,-3.9127311685658284,63.0
,,0.005477078588775195,0.019985841751013055,0.0008201463662818739,0.026283066706070123,0.2972109799133234,0.2083881097296098,0.7604075268125879,-3.9127311685658284,63.1
,,0.005477078588775195,0.019985841751013055,0.0008201463662818739,0.026283066706070123,0.2977067909859765,0.2083881097296098,0.7604075268125879,-3.9127311685658284,63.2
,,0.005477078588775195,0.019985841751013055,0.0008201463662818739,0.026283066706070123,0.2992773351165211,0.2083881097296098,0.7604075268125879,-3.9127311685658284,63.3
,,0.005477078588775195,0.019985841751013055,0.0008201463662818739,0.026283066706070123,0.3008478792470657,0.2083881097296098,0.7604075268125879,-3.9127311685658284,63.4
,,0.005477078588775195,0.019985841751013055,0.0008201463662818739,0.026283066706070123,0.30135911171326285,0.2083881097296098,0.7604075268125879,-3.9127311685658284,63.5
,,0.004986590977103607,0.019610281713160767,0.0008521653218382201,0.025449038012102593,0.3016431784754887,0.19594418361637772,0.7705706480470839,-3.931701273086107,63.6
,,0.0050545329802878635,0.019685866854283272,0.0008093728384950778,0.025549772673066216,0.30195569313507886,0.19783083963076495,0.7704908809241777,-3.927854319270342,63.7
,,0.0050545329802878635,0.019685866854283272,0.0008093728384950778,0.025549772673066216,0.30226820779466906,0.19783083963076495,0.7704908809241777,-3.927854319270342,63.8
,,0.0050545329802878635,0.019685866854283272,0.0008093728384950778,0.025549772673066216,0.30258072245425927,0.19783083963076495,0.7704908809241777,-3.927854319270342,63.9
,,0.0050545329802878635,0.019685866854283272,0.0008093728384950778,0.025549772673066216,0.3028932371138494,0.19783083963076495,0.7704908809241777,-3.927854319270342,64.0
,,0.0050545329802878635,0.019685866854283272,0.0008093728384950778,0.025549772673066216,0.3032057517734396,0.19783083963076495,0.7704908809241777,-3.927854319270342,64.1
,,0.0050545329802878635,0.019685866854283272,0.0008093728384950778,0.025549772673066216,0.30351826643302976,0.19783083963076495,0.7704908809241777,-3.927854319270342,64.2
,,0.0050545329802878635,0.019685866854283272,0.0008093728384950778,0.025549772673066216,0.3029869166122714,0.19783083963076495,0.7704908809241777,-3.927854319270342,64.3
,,0.004621534479215477,0.019367263020753495,0.00082673867176283,0.0248155361717318,0.3036431815325524,0.18623552790610343,0.7804491060247727,-3.944171111456479,64.4
,,0.004621534479215477,0.019367263020753495,0.00082673867176283,0.0248155361717318,0.3040333017943494,0.18623552790610343,0.7804491060247727,-3.944171111456479,64.5
,,0.004785650798896854,0.019527151454395594,0.0007891537827474123,0.02510195603603986,0.3044967248659173,0.1906485212557104,0.7779135389433277,-3.935949399601063,64.6
,,0.004785650798896854,0.019527151454395594,0.0007891537827474123,0.02510195603603986,0.3049601479374851,0.1906485212557104,0.7779135389433277,-3.935949399601063,64.7
,,0.004785650798896854,0.019527151454395594,0.0007891537827474123,0.02510195603603986,0.30542357100905293,0.1906485212557104,0.7779135389433277,-3.935949399601063,64.8
,,0.004785650798896854,0.019527151454395594,0.0007891537827474123,0.02510195603603986,0.3058869940806208,0.1906485212557104,0.7779135389433277,-3.935949399601063,64.9
,,0.004785650798896854,0.019527151454395594,0.0007891537827474123,0.02510195603603986,0.3063504171521887,0.1906485212557104,0.7779135389433277,-3.935949399601063,65.0
,,0.004785650798896854,0.019527151454395594,0.0007891537827474123,0.02510195603603986,0.3068138402237566,0.1906485212557104,0.7779135389433277,-3.935949399601063,65.1
,,0.00438315660510889,0.01918327471868702,0.0007991767430447883,0.024365608066840697,0.3064175571179884,0.1798911233031756,0.7873095005904512,-3.9537164879855276,65.2
,,0.00438315660510889,0.01918327471868702,0.0007991767430447883,0.024365608066840697,0.30602127401222023,0.1798911233031756,0.7873095005904512,-3.9537164879855276,65.3
,,0.00438315660510889,0.01918327471868702,0.0007991767430447883,0.024365608066840697,0.3058097779501469,0.1798911233031756,0.7873095005904512,-3.9537164879855276,65.4
,,0.0046787670899320925,0.019535714310440454,0.0007740711271686803,0.024988552527541227,0.3057233919738817,0.18723641894725082,0.7817865516183498,-3.9355109854696693,65.5
,,0.0046787670899320925,0.019535714310440454,0.0007740711271686803,0.024988552527541227,0.3056370059976165,0.18723641894725082,0.7817865516183498,-3.9355109854696693,65.6
,,0.0046787670899320925,0.019535714310440454,0.0007740711271686803,0.024988552527541227,0.3055506200213513,0.18723641894725082,0.7817865516183498,-3.9355109854696693,65.7
,,0.0046787670899320925,0.019535714310440454,0.0007740711271686803,0.024988552527541227,0.3054642340450861,0.18723641894725082,0.7817865516183498,-3.9355109854696693,65.8
,,0.0046787670899320925,0.019535714310440454,0.0007740711271686803,0.024988552527541227,0.3053778480688209,0.18723641894725082,0.7817865516183498,-3.9355109854696693,65.9
,,0.004332596322419629,0.019425150627662504,0.0007936592378941054,0.02455140618797624,0.30510444413711907,0.17647039396633285,0.791203179114675,-3.9411866284386705,66.0
,,0.004332596322419629,0.019425150627662504,0.0007936592378941054,0.02455140618797624,0.30399005464862233,0.17647039396633285,0.791203179114675,-3.9411866284386705,66.1
,,0.004332596322419629,0.019425150627662504,0.0007936592378941054,0.02455140618797624,0.30287566516012554,0.17647039396633285,0.791203179114675,-3.9411866284386705,66.2
,,0.004772217693357556,0.019988371356088462,0.0007808896719166789,0.025541478721362695,0.30193978873115496,0.18684187182029166,0.7825847349773976,-3.9126046067209708,66.3
,,0.004772217693357556,0.019988371356088462,0.0007808896719166789,0.025541478721362695,0.30165549421901366,0.18684187182029166,0.7825847349773976,-3.9126046067209708,66.4
,,0.004772217693357556,0.019988371356088462,0.0007808896719166789,0.025541478721362695,0.3013711997068724,0.18684187182029166,0.7825847349773976,-3.9126046067209708,66.5
,,0.004772217693357556,0.019988371356088462,0.0007808896719166789,0.025541478721362695,0.301086905194731,0.18684187182029166,0.7825847349773976,-3.9126046067209708,66.6
,,0.007588258908343904,0.02365432423243214,0.0004832202779656142,0.031725803418741656,0.30173497723292986,0.23918256090123874,0.7455862951750694,-3.7442093379489343,66.7
,,0.004772217693357556,0.019988371356088462,0.0007808896719166789,0.025541478721362695,0.30145068272078857,0.18684187182029166,0.7825847349773976,-3.9126046067209708,66.8
,,0.0045567598731602234,0.02054849306769883,0.0008265756545618797,0.025931828595420932,0.2993730166379429,0.17572073085369924,0.7924043224366871,-3.8849676707676584,66.9
,,0.0045567598731602234,0.02054849306769883,0.0008265756545618797,0.025931828595420932,0.29729535055509726,0.17572073085369924,0.7924043224366871,-3.8849676707676584,67.0
,,0.005175160832337399,0.02123337186998457,0.0008171318871884927,0.02722566458951046,0.29546735829165255,0.19008391201334685,0.7799027935635919,-3.8521811901608447,67.1
,,0.005175160832337399,0.02123337186998457,0.0008171318871884927,0.02722566458951046,0.2936393660282078,0.19008391201334685,0.7799027935635919,-3.8521811901608447,67.2
,,0.005175160832337399,0.02123337186998457,0.0008171318871884927,0.02722566458951046,0.2931954362216014,0.19008391201334685,0.7799027935635919,-3.8521811901608447,67.3
,,0.005175160832337399,0.02123337186998457,0.0008171318871884927,0.02722566458951046,0.292751506414995,0.19008391201334685,0.7799027935635919,-3.8521811901608447,67.4
,,0.005175160832337399,0.02123337186998457,0.0008171318871884927,0.02722566458951046,0.2923075766083886,0.19008391201334685,0.7799027935635919,-3.8521811901608447,67.5
,,0.008046075174103128,0.025324199910377817,0.0005639935333720776,0.033934268617853015,0.29270450000380194,0.2371076643705838,0.7462721591428262,-3.6759948222239354,67.6
,,0.005175160832337399,0.02123337186998457,0.0008171318871884927,0.02722566458951046,0.2919981761972053,0.19008391201334685,0.7799027935635919,-3.8521811901608447,67.7
,,,0.025581937866328414,0.0005794660007701503,0.026161403867098566,0.291838566816639,,0.9778503476451847,-3.6658687286121845,67.8
,,0.00605512279883804,0.023716851979197907,0.0008996393020748656,0.030671614080110814,0.29125724133107866,0.19741780732578137,0.7732508604617987,-3.741569429545562,67.9
,,0.00605512279883804,0.023716851979197907,0.0008996393020748656,0.030671614080110814,0.29067591584551833,0.19741780732578137,0.7732508604617987,-3.741569429545562,68.0
,,0.00605512279883804,0.023716851979197907,0.0008996393020748656,0.030671614080110814,0.29009459035995794,0.19741780732578137,0.7732508604617987,-3.741569429545562,68.1
,,0.00605512279883804,0.023716851979197907,0.0008996393020748656,0.030671614080110814,0.2875228637159594,0.19741780732578137,0.7732508604617987,-3.741569429545562,68.2
,,0.00605512279883804,0.023716851979197907,0.0008996393020748656,0.030671614080110814,0.28495113707196085,0.19741780732578137,0.7732508604617987,-3.741569429545562,68.3
,,0.00605512279883804,0.023716851979197907,0.0008996393020748656,0.030671614080110814,0.2823794104279623,0.19741780732578137,0.7732508604617987,-3.741569429545562,68.4
,,0.00605512279883804,0.023716851979197907,0.0008996393020748656,0.030671614080110814,0.2798076837839637,0.19741780732578137,0.7732508604617987,-3.741569429545562,68.5
,,,0.02782483878904008,0.0007145307680434306,0.028539369557083513,0.27710754511578395,,0.974963330335162,-3.5818261755825027,68.6
,,,0.02782483878904008,0.0007145307680434306,0.028539369557083513,0.2743438737730587,,0.974963330335162,-3.5818261755825027,68.7
,,0.007299052133369685,0.026874400931158664,0.0010096885543529701,0.035183141618881315,0.2715153923902554,0.2074587941132747,0.7638431275488002,-3.6165810837163876,68.8
,,0.007299052133369685,0.026874400931158664,0.0010096885543529701,0.035183141618881315,0.26868691100745207,0.2074587941132747,0.7638431275488002,-3.6165810837163876,68.9
,,0.007299052133369685,0.026874400931158664,0.0010096885543529701,0.035183141618881315,0.2658584296246487,0.2074587941132747,0.7638431275488002,-3.6165810837163876,69.0
,,0.007299052133369685,0.026874400931158664,0.0010096885543529701,0.035183141618881315,0.2655051167488442,0.2074587941132747,0.7638431275488002,-3.6165810837163876,69.1
,,0.007299052133369685,0.026874400931158664,0.0010096885543529701,0.035183141618881315,0.26515180387303977,0.2074587941132747,0.7638431275488002,-3.6165810837163876,69.2
,,0.007299052133369685,0.026874400931158664,0.0010096885543529701,0.035183141618881315,0.2647984909972353,0.2074587941132747,0.7638431275488002,-3.6165810837163876,69.3
,,0.007419301988535616,0.028165419799956168,0.0011006368819548589,0.036685358670446644,0.2643489444786466,0.2022415006265846,0.7677564243809873,-3.569660301724129,69.4
,,0.007299052133369685,0.026874400931158664,0.0010096885543529701,0.035183141618881315,0.26388561486054896,0.2074587941132747,0.7638431275488002,-3.6165810837163876,69.5
,,,0.03032703775409732,0.0009152860861174135,0.031242323840214734,0.2633249470702288,,0.9707036489731513,-3.4957156292423863,69.6
,,0.009134978814098306,0.03173155809559708,0.0012021388937050186,0.0420686758034004,0.26304996343986203,0.21714443441930084,0.7542799360713945,-3.4504435697833977,69.7
,,0.009134978814098306,0.03173155809559708,0.0012021388937050186,0.0420686758034004,0.2628923580718988,0.21714443441930084,0.7542799360713945,-3.4504435697833977,69.8
,,0.009134978814098306,0.03173155809559708,0.0012021388937050186,0.0420686758034004,0.262617374441532,0.21714443441930084,0.7542799360713945,-3.4504435697833977,69.9
,,0.009134978814098306,0.03173155809559708,0.0012021388937050186,0.0420686758034004,0.26248582774034945,0.21714443441930084,0.7542799360713945,-3.4504435697833977,70.0
,,0.009134978814098306,0.03173155809559708,0.0012021388937050186,0.0420686758034004,0.2623542810391669,0.21714443441930084,0.7542799360713945,-3.4504435697833977,70.1
,,0.009134978814098306,0.03173155809559708,0.0012021388937050186,0.0420686758034004,0.2622227343379843,0.21714443441930084,0.7542799360713945,-3.4504435697833977,70.2
,,0.009134978814098306,0.03173155809559708,0.0012021388937050186,0.0420686758034004,0.26202346080877825,0.21714443441930084,0.7542799360713945,-3.4504435697833977,70.3
,,0.009736463389149151,0.03450602890750539,0.0013850048425576346,0.04562749713921218,0.26175613890898675,0.21339025805957815,0.7562551327815652,-3.366621219269805,70.4
,,0.010897629133698522,0.03482309800311736,0.0012567526396891201,0.046977479776505,0.26185519236806404,0.23197560161898656,0.7412721620825122,-3.3574743766550794,70.5
,,0.014297839762730321,0.03665597545572761,0.0013778619432508986,0.052331677161708834,0.2628722489785234,0.27321577557220106,0.7004548190278305,-3.3061788228552564,70.6
,,0.014297839762730321,0.03665597545572761,0.0013778619432508986,0.052331677161708834,0.2638893055889828,0.27321577557220106,0.7004548190278305,-3.3061788228552564,70.7
,,0.014297839762730321,0.03665597545572761,0.0013778619432508986,0.052331677161708834,0.26490636219944225,0.27321577557220106,0.7004548190278305,-3.3061788228552564,70.8
,,0.014297839762730321,0.03665597545572761,0.0013778619432508986,0.052331677161708834,0.26637869695037275,0.27321577557220106,0.7004548190278305,-3.3061788228552564,70.9
,,0.014297839762730321,0.03665597545572761,0.0013778619432508986,0.052331677161708834,0.26781679135825837,0.27321577557220106,0.7004548190278305,-3.3061788228552564,71.0
,,0.014297839762730321,0.03665597545572761,0.0013778619432508986,0.052331677161708834,0.26896494323464226,0.27321577557220106,0.7004548190278305,-3.3061788228552564,71.1
,,0.012394652356204992,0.03824742719321792,0.0014140744852035006,0.05205615403462642,0.26934577162713313,0.2381015767695859,0.7347340175721916,-3.2636789838942515,71.2
,,0.012394652356204992,0.03824742719321792,0.0014140744852035006,0.05205615403462642,0.26972660001962406,0.2381015767695859,0.7347340175721916,-3.2636789838942515,71.3
,,0.012394652356204992,0.03824742719321792,0.0014140744852035006,0.05205615403462642,0.270107428412115,0.2381015767695859,0.7347340175721916,-3.2636789838942515,71.4
,,0.012394652356204992,0.03824742719321792,0.0014140744852035006,0.05205615403462642,0.27048825680460586,0.2381015767695859,0.7347340175721916,-3.2636789838942515,71.5
,,0.012813562899341992,0.04001975270904132,0.001638548368290504,0.054471863976673814,0.27082392199983524,0.23523268645312145,0.7346866765231085,-3.2183821290300156,71.6
,,0.012818976868138009,0.040036544588298785,0.00163923133699449,0.054494752793431286,0.27115959809462714,0.23523323276150707,0.7346862319031334,-3.2179626272526263,71.7
,,0.012818976868138009,0.040036544588298785,0.00163923133699449,0.054494752793431286,0.27171013482075307,0.23523323276150707,0.7346862319031334,-3.2179626272526263,71.8
,,0.012818976868138009,0.040036544588298785,0.00163923133699449,0.054494752793431286,0.27224657630250343,0.23523323276150707,0.7346862319031334,-3.2179626272526263,71.9
,,0.013640192637515218,0.041180950414809236,0.0015976893389903193,0.056418832391314774,0.2729114350681465,0.2417666594535022,0.7299149711072134,-3.189779498124557,72.0
,,0.013640192637515218,0.041180950414809236,0.0015976893389903193,0.056418832391314774,0.27357629383378973,0.2417666594535022,0.7299149711072134,-3.189779498124557,72.1
,,0.013640192637515218,0.041180950414809236,0.0015976893389903193,0.056418832391314774,0.27424115259943294,0.2417666594535022,0.7299149711072134,-3.189779498124557,72.2
,,0.013640192637515218,0.041180950414809236,0.0015976893389903193,0.056418832391314774,0.27490601136507603,0.2417666594535022,0.7299149711072134,-3.189779498124557,72.3
,,0.013640192637515218,0.041180950414809236,0.0015976893389903193,0.056418832391314774,0.27557087013071924,0.2417666594535022,0.7299149711072134,-3.189779498124557,72.4
,,0.014237878841336657,0.04292820530339679,0.0018832480214501634,0.05904933216618361,0.2762408619478994,0.24111837202945388,0.7269888367675889,-3.1482262028047887,72.5
,,0.014237878841336657,0.04292820530339679,0.0018832480214501634,0.05904933216618361,0.2771406609307249,0.24111837202945388,0.7269888367675889,-3.1482262028047887,72.6
,,0.014237878841336657,0.04292820530339679,0.0018832480214501634,0.05904933216618361,0.2780116812266819,0.24111837202945388,0.7269888367675889,-3.1482262028047887,72.7
,,0.014237878841336657,0.04292820530339679,0.0018832480214501634,0.05904933216618361,0.2788827015226389,0.24111837202945388,0.7269888367675889,-3.1482262028047887,72.8
,,0.014910923749431702,0.04456144975031464,0.0018211072700635537,0.061293480769809894,0.27978799673847143,0.24327095740296215,0.7270177707424863,-3.110886149100732,72.9
