HRV_ULF,HRV_VLF,HRV_LF,HRV_HF,HRV_VHF,HRV_TP,HRV_LFHF,HRV_LFn,HRV_HFn,HRV_LnHF,time
,,0.01880829808487166,0.02420195168265586,0.001827218957967323,0.04483746872549484,0.7771397254028268,0.419477250154783,0.5397706955944748,-3.7213220010277444,0.0
,,0.01880829808487166,0.02420195168265586,0.001827218957967323,0.04483746872549484,0.7771397254028268,0.419477250154783,0.5397706955944748,-3.7213220010277444,0.1
,,0.01880829808487166,0.02420195168265586,0.001827218957967323,0.04483746872549484,0.7771397254028268,0.419477250154783,0.5397706955944748,-3.7213220010277444,0.2
,,0.01880829808487166,0.02420195168265586,0.001827218957967323,0.04483746872549484,0.7771397254028268,0.419477250154783,0.5397706955944748,-3.7213220010277444,0.3
,,0.01880829808487166,0.02420195168265586,0.001827218957967323,0.04483746872549484,0.7771397254028268,0.419477250154783,0.5397706955944748,-3.7213220010277444,0.4
,,0.01893352656832321,0.027836440390431233,0.0022728556737798213,0.04904282263253427,0.7609781937616348,0.3860611105153437,0.5675945815558536,-3.581409311229754,0.5
,,0.01893352656832321,0.027836440390431233,0.0022728556737798213,0.04904282263253427,0.7494342425893546,0.3860611105153437,0.5675945815558536,-3.581409311229754,0.6
,,0.01893352656832321,0.027836440390431233,0.0022728556737798213,0.04904282263253427,0.7407762792101446,0.3860611105153437,0.5675945815558536,-3.581409311229754,0.7
,,0.01893352656832321,0.027836440390431233,0.0022728556737798213,0.04904282263253427,0.7340423076929812,0.3860611105153437,0.5675945815558536,-3.581409311229754,0.8
,,0.018461616358199304,0.027019121228320675,0.0023168103055369767,0.04779754789205695,0.7289660443738175,0.3862460978101196,0.5652825807997306,-3.611210469987086,0.9
,,0.018461616358199304,0.027019121228320675,0.0023168103055369767,0.04779754789205695,0.7248127380217744,0.3862460978101196,0.5652825807997306,-3.611210469987086,1.0
,,0.018461616358199304,0.027019121228320675,0.0023168103055369767,0.04779754789205695,0.7213516493950719,0.3862460978101196,0.5652825807997306,-3.611210469987086,1.1
,,0.018461616358199304,0.027019121228320675,0.0023168103055369767,0.04779754789205695,0.7184230359417081,0.3862460978101196,0.5652825807997306,-3.611210469987086,1.2
,,0.018461616358199304,0.027019121228320675,0.0023168103055369767,0.04779754789205695,0.7159127958388251,0.3862460978101196,0.5652825807997306,-3.611210469987086,1.3
,,,0.025122330136568116,0.0019875112583044212,0.027109841394872537,0.7159127958388251,,0.9266867249662208,-3.683998181470403,1.4
,,,0.025122330136568116,0.0019875112583044212,0.027109841394872537,0.7159127958388251,,0.9266867249662208,-3.683998181470403,1.5
,,,0.025122330136568116,0.0019875112583044212,0.027109841394872537,0.7159127958388251,,0.9266867249662208,-3.683998181470403,1.6
,,,0.025122330136568116,0.0019875112583044212,0.027109841394872537,0.7159127958388251,,0.9266867249662208,-3.683998181470403,1.7
,,0.018145028788272927,0.02699782121483995,0.0023264812780060483,0.04746933128111892,0.7129914320003989,0.3822474068744712,0.5687423961158353,-3.6119991119805532,1.8
,,0.018145028788272927,0.02699782121483995,0.0023264812780060483,0.04746933128111892,0.7104352386417762,0.3822474068744712,0.5687423961158353,-3.6119991119805532,1.9
,,0.018145028788272927,0.02699782121483995,0.0023264812780060483,0.04746933128111892,0.7081797739135796,0.3822474068744712,0.5687423961158353,-3.6119991119805532,2.0
,,0.018145028788272927,0.02699782121483995,0.0023264812780060483,0.04746933128111892,0.7061749163774048,0.3822474068744712,0.5687423961158353,-3.6119991119805532,2.1
,,0.018171298694467732,0.02725697556127659,0.002289881357237301,0.04771815561298162,0.7040954993879199,0.3808047159627492,0.571207650654909,-3.602445806731114,2.2
,,0.018145028788272927,0.02699782121483995,0.0023264812780060483,0.04746933128111892,0.7024953413316457,0.3822474068744712,0.5687423961158353,-3.6119991119805532,2.3
,,0.018850387038839556,0.025505266952565747,0.002015442787148732,0.046371096778554034,0.704237382685538,0.40651156320196397,0.5500250958989947,-3.668870300986243,2.4
,,0.018850387038839556,0.025505266952565747,0.002015442787148732,0.046371096778554034,0.705821056643622,0.40651156320196397,0.5500250958989947,-3.668870300986243,2.5
,,0.018850387038839556,0.025505266952565747,0.002015442787148732,0.046371096778554034,0.7072670198227423,0.40651156320196397,0.5500250958989947,-3.668870300986243,2.6
,,0.017738700336765213,0.024549861367236758,0.0018503814059802122,0.04413894310998218,0.7079041467241987,0.4018832143888271,0.5561950431405939,-3.7070490717132847,2.7
,,0.017738700336765213,0.024549861367236758,0.0018503814059802122,0.04413894310998218,0.7084903034735386,0.4018832143888271,0.5561950431405939,-3.7070490717132847,2.8
,,0.017738700336765213,0.024549861367236758,0.0018503814059802122,0.04413894310998218,0.70903137124216,0.4018832143888271,0.5561950431405939,-3.7070490717132847,2.9
,,0.017738700336765213,0.024549861367236758,0.0018503814059802122,0.04413894310998218,0.7095323599168095,0.4018832143888271,0.5561950431405939,-3.7070490717132847,3.0
,,0.017738700336765213,0.024549861367236758,0.0018503814059802122,0.04413894310998218,0.7099975636861268,0.4018832143888271,0.5561950431405939,-3.7070490717132847,3.1
,,0.017738700336765213,0.024549861367236758,0.0018503814059802122,0.04413894310998218,0.7104306844368706,0.4018832143888271,0.5561950431405939,-3.7070490717132847,3.2
,,,0.02733368819449035,0.0021974642072048224,0.02953115240169517,0.7104306844368706,,0.9255882676939258,-3.5996353377450117,3.3
,,,0.02733368819449035,0.0021974642072048224,0.02953115240169517,0.7104306844368706,,0.9255882676939258,-3.5996353377450117,3.4
,,,0.02733368819449035,0.0021974642072048224,0.02953115240169517,0.7104306844368706,,0.9255882676939258,-3.5996353377450117,3.5
,,0.016745912114048755,0.026669103285591845,0.0020623223215715343,0.04547733772121213,0.7076801392799452,0.3682254272821672,0.5864262206613844,-3.6242495639409484,3.6
,,0.016745912114048755,0.026669103285591845,0.0020623223215715343,0.04547733772121213,0.7051070486492731,0.3682254272821672,0.5864262206613844,-3.6242495639409484,3.7
,,0.016745912114048755,0.026669103285591845,0.0020623223215715343,0.04547733772121213,0.7026947761830179,0.3682254272821672,0.5864262206613844,-3.6242495639409484,3.8
,,0.016745912114048755,0.026669103285591845,0.0020623223215715343,0.04547733772121213,0.7004287020480509,0.3682254272821672,0.5864262206613844,-3.6242495639409484,3.9
,,0.016745912114048755,0.026669103285591845,0.0020623223215715343,0.04547733772121213,0.6982959263916113,0.3682254272821672,0.5864262206613844,-3.6242495639409484,4.0
,,0.016745912114048755,0.026669103285591845,0.0020623223215715343,0.04547733772121213,0.6962850236298256,0.3682254272821672,0.5864262206613844,-3.6242495639409484,4.1
,,0.016989226317732933,0.027085739704471513,0.0020349171133888923,0.04610988313559334,0.6943670724077358,0.36845086481293937,0.5874172273397799,-3.6087478997607425,4.2
,,0.016989226317732933,0.027085739704471513,0.0020349171133888923,0.04610988313559334,0.6925527942246777,0.36845086481293937,0.5874172273397799,-3.6087478997607425,4.3
,,0.016989226317732933,0.027085739704471513,0.0020349171133888923,0.04610988313559334,0.690834004367044,0.36845086481293937,0.5874172273397799,-3.6087478997607425,4.4
,,0.016292105491811718,0.026591752042215065,0.0018674618183494086,0.04475131935237619,0.6888299310051449,0.3640586630201026,0.5942115769331637,-3.62715418487818,4.5
,,0.016292105491811718,0.026591752042215065,0.0018674618183494086,0.04475131935237619,0.6869260613113406,0.3640586630201026,0.5942115769331637,-3.62715418487818,4.6
,,0.016292105491811718,0.026591752042215065,0.0018674618183494086,0.04475131935237619,0.685115063309917,0.3640586630201026,0.5942115769331637,-3.62715418487818,4.7
,,0.016292105491811718,0.026591752042215065,0.0018674618183494086,0.04475131935237619,0.6833903033085613,0.3640586630201026,0.5942115769331637,-3.62715418487818,4.8
,,0.016292105491811718,0.026591752042215065,0.0018674618183494086,0.04475131935237619,0.6817457647026174,0.3640586630201026,0.5942115769331637,-3.62715418487818,4.9
,,0.016454353864099238,0.026660872936012703,0.0018586263929025008,0.044973853193014446,0.6802781873183412,0.36586489028373953,0.5928082884424455,-3.624558221481326,5.0
,,0.016454353864099238,0.026660872936012703,0.0018586263929025008,0.044973853193014446,0.6788758355955883,0.36586489028373953,0.5928082884424455,-3.624558221481326,5.1
,,0.016454353864099238,0.026660872936012703,0.0018586263929025008,0.044973853193014446,0.6775344556868681,0.36586489028373953,0.5928082884424455,-3.624558221481326,5.2
,,0.015827887143820614,0.02601966338630859,0.0016686440794579527,0.04351619460958715,0.6760614851164277,0.363724063784142,0.5979305777940459,-3.648902742710567,5.3
,,0.015827887143820614,0.02601966338630859,0.0016686440794579527,0.04351619460958715,0.6746498883197556,0.363724063784142,0.5979305777940459,-3.648902742710567,5.4
,,0.015827887143820614,0.02601966338630859,0.0016686440794579527,0.04351619460958715,0.6732959077188662,0.363724063784142,0.5979305777940459,-3.648902742710567,5.5
,,0.015827887143820614,0.02601966338630859,0.0016686440794579527,0.04351619460958715,0.6719960863420122,0.363724063784142,0.5979305777940459,-3.648902742710567,5.6
,,0.015827887143820614,0.02601966338630859,0.0016686440794579527,0.04351619460958715,0.6707472383524858,0.363724063784142,0.5979305777940459,-3.648902742710567,5.7
,,0.015827887143820614,0.02601966338630859,0.0016686440794579527,0.04351619460958715,0.6695464229779413,0.363724063784142,0.5979305777940459,-3.648902742710567,5.8
,,0.015827887143820614,0.02601966338630859,0.0016686440794579527,0.04351619460958715,0.6683909213911154,0.363724063784142,0.5979305777940459,-3.648902742710567,5.9
,,0.01621256629874936,0.026266082062425377,0.0017276166602965997,0.04420626502147133,0.667443745422886,0.36674815868010535,0.5941710309538192,-3.639476827540741,6.0
,,0.01599486043965675,0.025944076520579257,0.0015616615474304558,0.043500598507666466,0.6665177318639434,0.3676928821298366,0.5964073463496582,-3.651811960529602,6.1
,,0.01599486043965675,0.025944076520579257,0.0015616615474304558,0.043500598507666466,0.6656247902178202,0.3676928821298366,0.5964073463496582,-3.651811960529602,6.2
,,0.01599486043965675,0.025944076520579257,0.0015616615474304558,0.043500598507666466,0.6647631798575256,0.3676928821298366,0.5964073463496582,-3.651811960529602,6.3
,,0.01599486043965675,0.025944076520579257,0.0015616615474304558,0.043500598507666466,0.6639312801993105,0.3676928821298366,0.5964073463496582,-3.651811960529602,6.4
,,0.01599486043965675,0.025944076520579257,0.0015616615474304558,0.043500598507666466,0.6631275805295093,0.3676928821298366,0.5964073463496582,-3.651811960529602,6.5
,,0.01599486043965675,0.025944076520579257,0.0015616615474304558,0.043500598507666466,0.6623506708487014,0.3676928821298366,0.5964073463496582,-3.651811960529602,6.6
,,0.01599486043965675,0.025944076520579257,0.0015616615474304558,0.043500598507666466,0.6615992336164447,0.3676928821298366,0.5964073463496582,-3.651811960529602,6.7
,,0.01599486043965675,0.025944076520579257,0.0015616615474304558,0.043500598507666466,0.6608720362949059,0.3676928821298366,0.5964073463496582,-3.651811960529602,6.8
,,0.016615858212268592,0.026515272766983452,0.0017002359088165561,0.0448313668880686,0.6603288668040431,0.3706301941172962,0.5914446649192,-3.630034381175226,6.9
,,0.01688346976303068,0.0266630281626726,0.0015974183028170052,0.045143916228520285,0.6599052363015473,0.3739921383330123,0.5906228433462285,-3.6244773861854584,7.0
,,0.01688346976303068,0.0266630281626726,0.0015974183028170052,0.045143916228520285,0.6594946405837436,0.3739921383330123,0.5906228433462285,-3.6244773861854584,7.1
,,0.01688346976303068,0.0266630281626726,0.0015974183028170052,0.045143916228520285,0.659096487160419,0.3739921383330123,0.5906228433462285,-3.6244773861854584,7.2
,,0.01688346976303068,0.0266630281626726,0.0015974183028170052,0.045143916228520285,0.6587102189139099,0.3739921383330123,0.5906228433462285,-3.6244773861854584,7.3
,,0.01688346976303068,0.0266630281626726,0.0015974183028170052,0.045143916228520285,0.6583353114981805,0.3739921383330123,0.5906228433462285,-3.6244773861854584,7.4
,,0.01688346976303068,0.0266630281626726,0.0015974183028170052,0.045143916228520285,0.6579712709640665,0.3739921383330123,0.5906228433462285,-3.6244773861854584,7.5
,,0.01688346976303068,0.0266630281626726,0.0015974183028170052,0.045143916228520285,0.6576176315880701,0.3739921383330123,0.5906228433462285,-3.6244773861854584,7.6
,,0.01688346976303068,0.0266630281626726,0.0015974183028170052,0.045143916228520285,0.6572739538846368,0.3739921383330123,0.5906228433462285,-3.6244773861854584,7.7
,,0.017588117672691524,0.02751504119496712,0.0017879535319284016,0.04689111239958704,0.6570231808209439,0.3750842488617612,0.586785848893818,-3.5930224712893764,7.8
,,0.017588117672691524,0.02751504119496712,0.0017879535319284016,0.04689111239958704,0.6567792782521465,0.3750842488617612,0.586785848893818,-3.5930224712893764,7.9
,,0.017974110663914595,0.027656983536221032,0.0017517552821983938,0.047382849482334025,0.6566862354200245,0.37933790095540726,0.5836918597842563,-3.5878770137820863,8.0
,,0.017974110663914595,0.027656983536221032,0.0017517552821983938,0.047382849482334025,0.6565956737300923,0.37933790095540726,0.5836918597842563,-3.5878770137820863,8.1
,,0.017974110663914595,0.027656983536221032,0.0017517552821983938,0.047382849482334025,0.6565074952425267,0.37933790095540726,0.5836918597842563,-3.5878770137820863,8.2
,,0.017974110663914595,0.027656983536221032,0.0017517552821983938,0.047382849482334025,0.6564216071052876,0.37933790095540726,0.5836918597842563,-3.5878770137820863,8.3
,,0.017974110663914595,0.027656983536221032,0.0017517552821983938,0.047382849482334025,0.6563379212279776,0.37933790095540726,0.5836918597842563,-3.5878770137820863,8.4
,,0.017974110663914595,0.027656983536221032,0.0017517552821983938,0.047382849482334025,0.656256353980473,0.37933790095540726,0.5836918597842563,-3.5878770137820863,8.5
,,0.017974110663914595,0.027656983536221032,0.0017517552821983938,0.047382849482334025,0.6561768259141559,0.37933790095540726,0.5836918597842563,-3.5878770137820863,8.6
,,0.018653178625128518,0.0287458741270461,0.0019566544956184997,0.04935570724779312,0.6560869803559448,0.37793356969801245,0.5824224943779209,-3.549261030661609,8.7
,,0.018653178625128518,0.0287458741270461,0.0019566544956184997,0.04935570724779312,0.6559993261528118,0.37793356969801245,0.5824224943779209,-3.549261030661609,8.8
,,0.018653178625128518,0.0287458741270461,0.0019566544956184997,0.04935570724779312,0.6559137840991519,0.37793356969801245,0.5824224943779209,-3.549261030661609,8.9
,,0.018977681736627734,0.028777236703987977,0.0019576992641546424,0.049712617704770354,0.6544960587486615,0.38174778583037,0.5788718846971229,-3.5481705965874983,9.0
,,0.018977681736627734,0.028777236703987977,0.0019576992641546424,0.049712617704770354,0.653078333398171,0.38174778583037,0.5788718846971229,-3.5481705965874983,9.1
,,0.018977681736627734,0.028777236703987977,0.0019576992641546424,0.049712617704770354,0.6516606080476804,0.38174778583037,0.5788718846971229,-3.5481705965874983,9.2
,,0.018977681736627734,0.028777236703987977,0.0019576992641546424,0.049712617704770354,0.65024288269719,0.38174778583037,0.5788718846971229,-3.5481705965874983,9.3
,,0.018977681736627734,0.028777236703987977,0.0019576992641546424,0.049712617704770354,0.6488251573466994,0.38174778583037,0.5788718846971229,-3.5481705965874983,9.4
,,0.018977681736627734,0.028777236703987977,0.0019576992641546424,0.049712617704770354,0.6485757354883435,0.38174778583037,0.5788718846971229,-3.5481705965874983,9.5
,,,0.026723396447658754,0.0022213890342455246,0.028944785481904278,0.648190433048498,,0.9232542581587176,-3.62221582582973,9.6
,,,0.026723396447658754,0.0022213890342455246,0.028944785481904278,0.6477956169681625,,0.9232542581587176,-3.62221582582973,9.7
,,,0.026723396447658754,0.0022213890342455246,0.028944785481904278,0.6473909304858185,,0.9232542581587176,-3.62221582582973,9.8
,,0.019764643752109495,0.029964862350839686,0.0021746759309466505,0.05190418203389584,0.647094859694161,0.3807909686198747,0.5773111371116733,-3.5077298387471587,9.9
,,0.019764643752109495,0.029964862350839686,0.0021746759309466505,0.05190418203389584,0.6467987889025034,0.3807909686198747,0.5773111371116733,-3.5077298387471587,10.0
,,0.019764643752109495,0.029964862350839686,0.0021746759309466505,0.05190418203389584,0.6465027181108458,0.3807909686198747,0.5773111371116733,-3.5077298387471587,10.1
,,0.019764643752109495,0.029964862350839686,0.0021746759309466505,0.05190418203389584,0.6462066473191883,0.3807909686198747,0.5773111371116733,-3.5077298387471587,10.2
,,0.0187413463881089,0.026956985257657756,0.0023315518135933653,0.048029883459360025,0.6463560456442604,0.39020178768425895,0.5612544381971512,-3.61351282197784,10.3
,,0.019764643752109495,0.029964862350839686,0.0021746759309466505,0.05190418203389584,0.6465194773174021,0.3807909686198747,0.5773111371116733,-3.5077298387471587,10.4
,,,0.027093123598277185,0.002358419555140913,0.029451543153418098,0.6465194773174021,,0.9199220379436316,-3.6084753250553585,10.5
,,,0.027093123598277185,0.002358419555140913,0.029451543153418098,0.6465194773174021,,0.9199220379436316,-3.6084753250553585,10.6
,,,0.027093123598277185,0.002358419555140913,0.029451543153418098,0.6465194773174021,,0.9199220379436316,-3.6084753250553585,10.7
,,0.02025025429443248,0.031072360437973626,0.002366880911264182,0.053689495643670294,0.6462678777898649,0.3771734871348131,0.5787418947683278,-3.4714365868512385,10.8
,,0.02025025429443248,0.031072360437973626,0.002366880911264182,0.053689495643670294,0.6460162782623278,0.3771734871348131,0.5787418947683278,-3.4714365868512385,10.9
,,0.02025025429443248,0.031072360437973626,0.002366880911264182,0.053689495643670294,0.6457646787347906,0.3771734871348131,0.5787418947683278,-3.4714365868512385,11.0
,,0.02025025429443248,0.031072360437973626,0.002366880911264182,0.053689495643670294,0.6455130792072534,0.3771734871348131,0.5787418947683278,-3.4714365868512385,11.1
,,0.02025025429443248,0.031072360437973626,0.002366880911264182,0.053689495643670294,0.6453284715894105,0.3771734871348131,0.5787418947683278,-3.4714365868512385,11.2
,,0.02025025429443248,0.031072360437973626,0.002366880911264182,0.053689495643670294,0.6450768720618735,0.3771734871348131,0.5787418947683278,-3.4714365868512385,11.3
,,0.020380007082861338,0.03195732213314794,0.0024383869097937627,0.054775716125803044,0.6438256070714757,0.3720628140407093,0.5834213478788988,-3.4433539496686993,11.4
,,0.020380007082861338,0.03195732213314794,0.0024383869097937627,0.054775716125803044,0.6425743420810781,0.3720628140407093,0.5834213478788988,-3.4433539496686993,11.5
,,0.020380007082861338,0.03195732213314794,0.0024383869097937627,0.054775716125803044,0.6413230770906805,0.3720628140407093,0.5834213478788988,-3.4433539496686993,11.6
,,0.020380007082861338,0.03195732213314794,0.0024383869097937627,0.054775716125803044,0.6402757644991185,0.3720628140407093,0.5834213478788988,-3.4433539496686993,11.7
,,0.02059865188976272,0.03223776260808091,0.0025186329152678466,0.05535504741311147,0.6392436938653369,0.37211876517847037,0.5823816275956261,-3.4346167617642416,11.8
,,0.02059865188976272,0.03223776260808091,0.0025186329152678466,0.05535504741311147,0.6382116232315551,0.37211876517847037,0.5823816275956261,-3.4346167617642416,11.9
,,0.02059865188976272,0.03223776260808091,0.0025186329152678466,0.05535504741311147,0.6371795525977735,0.37211876517847037,0.5823816275956261,-3.4346167617642416,12.0
,,0.02059865188976272,0.03223776260808091,0.0025186329152678466,0.05535504741311147,0.6361474819639917,0.37211876517847037,0.5823816275956261,-3.4346167617642416,12.1
,,0.02059865188976272,0.03223776260808091,0.0025186329152678466,0.05535504741311147,0.6351154113302101,0.37211876517847037,0.5823816275956261,-3.4346167617642416,12.2
,,0.020655129563848275,0.03309629476280774,0.002543960288743489,0.0562953846153995,0.6349809782955579,0.36690626958072337,0.5879042303186309,-3.40833394356562,12.3
,,0.020655129563848275,0.03309629476280774,0.002543960288743489,0.0562953846153995,0.6348497846111382,0.36690626958072337,0.5879042303186309,-3.40833394356562,12.4
,,0.020655129563848275,0.03309629476280774,0.002543960288743489,0.0562953846153995,0.6347217145858712,0.36690626958072337,0.5879042303186309,-3.40833394356562,12.5
,,0.020655129563848275,0.03309629476280774,0.002543960288743489,0.0562953846153995,0.6346762094996764,0.36690626958072337,0.5879042303186309,-3.40833394356562,12.6
,,0.02101090522973754,0.03384015323528242,0.0026430434482092465,0.057494101913229206,0.6345925487044555,0.3654445331009336,0.5885847784239572,-3.386107216024981,12.7
,,0.02101090522973754,0.03384015323528242,0.0026430434482092465,0.057494101913229206,0.6345088879092345,0.3654445331009336,0.5885847784239572,-3.386107216024981,12.8
,,0.02101090522973754,0.03384015323528242,0.0026430434482092465,0.057494101913229206,0.6344252271140136,0.3654445331009336,0.5885847784239572,-3.386107216024981,12.9
,,0.02101090522973754,0.03384015323528242,0.0026430434482092465,0.057494101913229206,0.6343415663187927,0.3654445331009336,0.5885847784239572,-3.386107216024981,13.0
,,0.02101090522973754,0.03384015323528242,0.0026430434482092465,0.057494101913229206,0.6342579055235718,0.3654445331009336,0.5885847784239572,-3.386107216024981,13.1
,,0.021046615224218024,0.03470506138488384,0.002646593494783385,0.05839827010388525,0.6340103276908912,0.3603979225202732,0.5942823532811276,-3.360869741430194,13.2
,,0.021046615224218024,0.03470506138488384,0.002646593494783385,0.05839827010388525,0.6337627498582107,0.3603979225202732,0.5942823532811276,-3.360869741430194,13.3
,,0.021046615224218024,0.03470506138488384,0.002646593494783385,0.05839827010388525,0.63351517202553,0.3603979225202732,0.5942823532811276,-3.360869741430194,13.4
,,0.021046615224218024,0.03470506138488384,0.002646593494783385,0.05839827010388525,0.6334409708164402,0.3603979225202732,0.5942823532811276,-3.360869741430194,13.5
,,0.021046615224218024,0.03470506138488384,0.002646593494783385,0.05839827010388525,0.6333667696073503,0.3603979225202732,0.5942823532811276,-3.360869741430194,13.6
,,0.019873731990483888,0.02915299759602133,0.0027033560737502937,0.05173008566025551,0.6341885486197336,0.3841813083590731,0.5635598167667394,-3.5351975379899145,13.7
,,0.019873731990483888,0.02915299759602133,0.0027033560737502937,0.05173008566025551,0.6350103276321171,0.3841813083590731,0.5635598167667394,-3.5351975379899145,13.8
,,0.019873731990483888,0.02915299759602133,0.0027033560737502937,0.05173008566025551,0.6358321066445005,0.3841813083590731,0.5635598167667394,-3.5351975379899145,13.9
,,0.021087971122035906,0.03619485526411581,0.0027031416308058182,0.05998596801695753,0.6354208099926985,0.35154840072055704,0.6033887000687198,-3.31883829002619,14.0
,,0.021087971122035906,0.03619485526411581,0.0027031416308058182,0.05998596801695753,0.6350095133408965,0.35154840072055704,0.6033887000687198,-3.31883829002619,14.1
,,0.021087971122035906,0.03619485526411581,0.0027031416308058182,0.05998596801695753,0.6345982166890946,0.35154840072055704,0.6033887000687198,-3.31883829002619,14.2
,,0.021087971122035906,0.03619485526411581,0.0027031416308058182,0.05998596801695753,0.6342924857625103,0.35154840072055704,0.6033887000687198,-3.31883829002619,14.3
,,0.021087971122035906,0.03619485526411581,0.0027031416308058182,0.05998596801695753,0.6339867548359261,0.35154840072055704,0.6033887000687198,-3.31883829002619,14.4
,,0.021087971122035906,0.03619485526411581,0.0027031416308058182,0.05998596801695753,0.6336810239093419,0.35154840072055704,0.6033887000687198,-3.31883829002619,14.5
,,0.01981797094325573,0.03501520173939101,0.002592766805672311,0.057425939488319054,0.6331771795804351,0.34510486236427845,0.6097453877356837,-3.351972976377873,14.6
,,0.01981797094325573,0.03501520173939101,0.002592766805672311,0.057425939488319054,0.6326733352515284,0.34510486236427845,0.6097453877356837,-3.351972976377873,14.7
,,0.01981797094325573,0.03501520173939101,0.002592766805672311,0.057425939488319054,0.6321694909226215,0.34510486236427845,0.6097453877356837,-3.351972976377873,14.8
,,0.018773402788381698,0.03393609073574891,0.002439745526632348,0.05514923905076296,0.6315134659896167,0.34041091248967975,0.6153501176056466,-3.3832762074319813,14.9
,,0.018773402788381698,0.03393609073574891,0.002439745526632348,0.05514923905076296,0.6307510293872003,0.34041091248967975,0.6153501176056466,-3.3832762074319813,15.0
,,0.018773402788381698,0.03393609073574891,0.002439745526632348,0.05514923905076296,0.6299972882541374,0.34041091248967975,0.6153501176056466,-3.3832762074319813,15.1
,,0.018773402788381698,0.03393609073574891,0.002439745526632348,0.05514923905076296,0.6292435471210743,0.34041091248967975,0.6153501176056466,-3.3832762074319813,15.2
,,0.018773402788381698,0.03393609073574891,0.002439745526632348,0.05514923905076296,0.6284898059880115,0.34041091248967975,0.6153501176056466,-3.3832762074319813,15.3
,,0.018773402788381698,0.03393609073574891,0.002439745526632348,0.05514923905076296,0.6277360648549484,0.34041091248967975,0.6153501176056466,-3.3832762074319813,15.4
,,0.017685699829676046,0.033277948882499464,0.0023215374578460196,0.05328518617002153,0.6267234579964532,0.33190650349319967,0.6245253376110335,-3.4028602970649016,15.5
,,0.017685699829676046,0.033277948882499464,0.0023215374578460196,0.05328518617002153,0.6257108511379581,0.33190650349319967,0.6245253376110335,-3.4028602970649016,15.6
,,0.017685699829676046,0.033277948882499464,0.0023215374578460196,0.05328518617002153,0.6246982442794629,0.33190650349319967,0.6245253376110335,-3.4028602970649016,15.7
,,0.017027628308225806,0.032677698594655524,0.002217293460413263,0.0519226203632946,0.6235621127771009,0.327942391756928,0.6293538031404171,-3.4210624339102726,15.8
,,0.017027628308225806,0.032677698594655524,0.002217293460413263,0.0519226203632946,0.6223052746236736,0.327942391756928,0.6293538031404171,-3.4210624339102726,15.9
,,0.017027628308225806,0.032677698594655524,0.002217293460413263,0.0519226203632946,0.6209702917527014,0.327942391756928,0.6293538031404171,-3.4210624339102726,16.0
,,0.017027628308225806,0.032677698594655524,0.002217293460413263,0.0519226203632946,0.6196353088817291,0.327942391756928,0.6293538031404171,-3.4210624339102726,16.1
,,0.017027628308225806,0.032677698594655524,0.002217293460413263,0.0519226203632946,0.6183003260107569,0.327942391756928,0.6293538031404171,-3.4210624339102726,16.2
,,0.017027628308225806,0.032677698594655524,0.002217293460413263,0.0519226203632946,0.6169653431397847,0.327942391756928,0.6293538031404171,-3.4210624339102726,16.3
,,0.01620786942378438,0.03276204183735864,0.0021082609466974746,0.051078172207840486,0.6153165140933007,0.3173149845267266,0.6414098316605322,-3.418484694791825,16.4
,,0.01620786942378438,0.03276204183735864,0.0021082609466974746,0.051078172207840486,0.6136676850468168,0.3173149845267266,0.6414098316605322,-3.418484694791825,16.5
,,0.01620786942378438,0.03276204183735864,0.0021082609466974746,0.051078172207840486,0.6120188560003328,0.3173149845267266,0.6414098316605322,-3.418484694791825,16.6
,,0.01620786942378438,0.03276204183735864,0.0021082609466974746,0.051078172207840486,0.6103700269538488,0.3173149845267266,0.6414098316605322,-3.418484694791825,16.7
,,0.015491601626868842,0.03188585267162435,0.002004056300408975,0.04938151059890217,0.6085441617083126,0.3137125907852087,0.6457042784821821,-3.445592857479809,16.8
,,0.015468833190918478,0.03183716421829576,0.0020010642929128636,0.0493070617021271,0.6067186279993512,0.3137244982142417,0.6456917755641137,-3.4471209854680795,16.9
,,0.015491601626868842,0.03188585267162435,0.002004056300408975,0.04938151059890217,0.6047656697136201,0.3137125907852087,0.6457042784821821,-3.445592857479809,17.0
,,0.015491601626868842,0.03188585267162435,0.002004056300408975,0.04938151059890217,0.6028127114278891,0.3137125907852087,0.6457042784821821,-3.445592857479809,17.1
,,0.01461315734628264,0.03204997512233207,0.001886168412813,0.04854930088142771,0.6005038422897107,0.3009962467219137,0.6601531750293983,-3.4404588718300473,17.2
,,0.01461315734628264,0.03204997512233207,0.001886168412813,0.04854930088142771,0.5981949731515319,0.3009962467219137,0.6601531750293983,-3.4404588718300473,17.3
,,0.01461315734628264,0.03204997512233207,0.001886168412813,0.04854930088142771,0.5958861040133534,0.3009962467219137,0.6601531750293983,-3.4404588718300473,17.4
,,0.01461315734628264,0.03204997512233207,0.001886168412813,0.04854930088142771,0.5935772348751748,0.3009962467219137,0.6601531750293983,-3.4404588718300473,17.5
,,0.013777882114971936,0.030671501544355596,0.0017757016575099933,0.04622508531683753,0.5911881138542668,0.29806071790966127,0.6635250391454329,-3.484421343973015,17.6
,,0.013777882114971936,0.030671501544355596,0.0017757016575099933,0.04622508531683753,0.5888108353687882,0.29806071790966127,0.6635250391454329,-3.484421343973015,17.7
,,0.013777882114971936,0.030671501544355596,0.0017757016575099933,0.04622508531683753,0.5864335568833096,0.29806071790966127,0.6635250391454329,-3.484421343973015,17.8
,,0.013777882114971936,0.030671501544355596,0.0017757016575099933,0.04622508531683753,0.5840562783978309,0.29806071790966127,0.6635250391454329,-3.484421343973015,17.9
,,0.013777882114971936,0.030671501544355596,0.0017757016575099933,0.04622508531683753,0.5815531762741014,0.29806071790966127,0.6635250391454329,-3.484421343973015,18.0
,,0.012914683941030132,0.030931848613739748,0.001678231923032503,0.045524764477802376,0.5786728438577894,0.28368480516417083,0.6794510409564435,-3.475968926410659,18.1
,,0.012914683941030132,0.030931848613739748,0.001678231923032503,0.045524764477802376,0.5757925114414776,0.28368480516417083,0.6794510409564435,-3.475968926410659,18.2
,,0.012914683941030132,0.030931848613739748,0.001678231923032503,0.045524764477802376,0.5729121790251656,0.28368480516417083,0.6794510409564435,-3.475968926410659,18.3
,,0.012914683941030132,0.030931848613739748,0.001678231923032503,0.045524764477802376,0.5700318466088536,0.28368480516417083,0.6794510409564435,-3.475968926410659,18.4
,,0.012056778164670122,0.029164307365626984,0.001568725698578749,0.04278981122887585,0.5671025629280199,0.2817675006832899,0.6815713023278315,-3.534809667879837,18.5
,,0.012056778164670122,0.029164307365626984,0.001568725698578749,0.04278981122887585,0.5652943997420675,0.2817675006832899,0.6815713023278315,-3.534809667879837,18.6
,,0.012056778164670122,0.029164307365626984,0.001568725698578749,0.04278981122887585,0.5635282868627653,0.2817675006832899,0.6815713023278315,-3.534809667879837,18.7
,,0.012056778164670122,0.029164307365626984,0.001568725698578749,0.04278981122887585,0.5618027742795391,0.2817675006832899,0.6815713023278315,-3.534809667879837,18.8
,,0.012056778164670122,0.029164307365626984,0.001568725698578749,0.04278981122887585,0.5589730579686579,0.2817675006832899,0.6815713023278315,-3.534809667879837,18.9
,,0.016229659532278482,0.034223793380536896,0.0018572816863223975,0.05231073459913777,0.5568423397516362,0.3102548579492897,0.6542403512930404,-3.3748341639284014,19.0
,,0.016229659532278482,0.034223793380536896,0.0018572816863223975,0.05231073459913777,0.5547116215346146,0.3102548579492897,0.6542403512930404,-3.3748341639284014,19.1
,,0.016229659532278482,0.034223793380536896,0.0018572816863223975,0.05231073459913777,0.552580903317593,0.3102548579492897,0.6542403512930404,-3.3748341639284014,19.2
,,0.016229659532278482,0.034223793380536896,0.0018572816863223975,0.05231073459913777,0.5500405583265671,0.3102548579492897,0.6542403512930404,-3.3748341639284014,19.3
,,0.01053568698750621,0.027872680765956486,0.0014252798081156623,0.03983364756157835,0.5468037687100075,0.2644921475297792,0.6997270516808295,-3.5801082538845597,19.4
,,0.01053568698750621,0.027872680765956486,0.0014252798081156623,0.03983364756157835,0.5448854680943035,0.2644921475297792,0.6997270516808295,-3.5801082538845597,19.5
,,0.01053568698750621,0.027872680765956486,0.0014252798081156623,0.03983364756157835,0.543010275357604,0.2644921475297792,0.6997270516808295,-3.5801082538845597,19.6
,,0.01053568698750621,0.027872680765956486,0.0014252798081156623,0.03983364756157835,0.5411767535706089,0.2644921475297792,0.6997270516808295,-3.5801082538845597,19.7
,,0.01053568698750621,0.027872680765956486,0.0014252798081156623,0.03983364756157835,0.5381354262150104,0.2644921475297792,0.6997270516808295,-3.5801082538845597,19.8
,,0.009779114503172518,0.028165697861539454,0.0014586038573523408,0.03940341622206431,0.5347519446894826,0.24817935704002772,0.7148034501071461,-3.569650429326959,19.9
,,0.009779114503172518,0.028165697861539454,0.0014586038573523408,0.03940341622206431,0.5313684631639547,0.24817935704002772,0.7148034501071461,-3.569650429326959,20.0
,,0.009779114503172518,0.028165697861539454,0.0014586038573523408,0.03940341622206431,0.5279849816384269,0.24817935704002772,0.7148034501071461,-3.569650429326959,20.1
,,0.009779114503172518,0.028165697861539454,0.0014586038573523408,0.03940341622206431,0.5246015001128991,0.24817935704002772,0.7148034501071461,-3.569650429326959,20.2
,,0.00919618936243152,0.026863507563557328,0.0013513673005545498,0.037411064226543396,0.5211639156998612,0.24581469553348773,0.7180631751314226,-3.6169865095342395,20.3
,,0.00919618936243152,0.026863507563557328,0.0013513673005545498,0.037411064226543396,0.5178817427422762,0.24581469553348773,0.7180631751314226,-3.6169865095342395,20.4
,,0.00919618936243152,0.026863507563557328,0.0013513673005545498,0.037411064226543396,0.514599569784691,0.24581469553348773,0.7180631751314226,-3.6169865095342395,20.5
,,0.00919618936243152,0.026863507563557328,0.0013513673005545498,0.037411064226543396,0.511317396827106,0.24581469553348773,0.7180631751314226,-3.6169865095342395,20.6
,,0.00919618936243152,0.026863507563557328,0.0013513673005545498,0.037411064226543396,0.5080352238695209,0.24581469553348773,0.7180631751314226,-3.6169865095342395,20.7
,,0.00831206836374959,0.026730430326454523,0.0014376390131603683,0.03648013770336448,0.5043907646898614,0.22785189111232404,0.7327392934700802,-3.621952649953994,20.8
,,0.00831206836374959,0.026730430326454523,0.0014376390131603683,0.03648013770336448,0.5007463055102022,0.22785189111232404,0.7327392934700802,-3.621952649953994,20.9
,,0.00831206836374959,0.026730430326454523,0.0014376390131603683,0.03648013770336448,0.4971018463305428,0.22785189111232404,0.7327392934700802,-3.621952649953994,21.0
,,0.00831206836374959,0.026730430326454523,0.0014376390131603683,0.03648013770336448,0.4934573871508834,0.22785189111232404,0.7327392934700802,-3.621952649953994,21.1
,,0.00800321813493664,0.026306948235997614,0.0013421045630159793,0.03565227093395023,0.48973809997763973,0.2244798977816444,0.737875808380738,-3.6379221832080435,21.2
,,0.00800321813493664,0.026306948235997614,0.0013421045630159793,0.03565227093395023,0.48618401771142555,0.2244798977816444,0.737875808380738,-3.6379221832080435,21.3
,,0.00800321813493664,0.026306948235997614,0.0013421045630159793,0.03565227093395023,0.4826299354452115,0.2244798977816444,0.737875808380738,-3.6379221832080435,21.4
,,0.00800321813493664,0.026306948235997614,0.0013421045630159793,0.03565227093395023,0.47907585317899737,0.2244798977816444,0.737875808380738,-3.6379221832080435,21.5
,,0.007338659903018618,0.026903940838448753,0.0015252593087123527,0.03576786005017973,0.47517230620379186,0.20517469853446663,0.7521820092313173,-3.615482503533772,21.6
,,0.007338659903018618,0.026903940838448753,0.0015252593087123527,0.03576786005017973,0.4713043712236772,0.20517469853446663,0.7521820092313173,-3.615482503533772,21.7
,,0.007338659903018618,0.026903940838448753,0.0015252593087123527,0.03576786005017973,0.4674364362435626,0.20517469853446663,0.7521820092313173,-3.615482503533772,21.8
,,0.007338659903018618,0.026903940838448753,0.0015252593087123527,0.03576786005017973,0.463568501263448,0.20517469853446663,0.7521820092313173,-3.615482503533772,21.9
,,0.007215577111099361,0.02720925765689717,0.0014308962788292376,0.03585573104682577,0.45961629558737854,0.2012391576028999,0.7588537972176124,-3.6041980085548366,22.0
,,0.007215577111099361,0.02720925765689717,0.0014308962788292376,0.03585573104682577,0.4556640899113091,0.2012391576028999,0.7588537972176124,-3.6041980085548366,22.1
,,0.007215577111099361,0.02720925765689717,0.0014308962788292376,0.03585573104682577,0.45187237958236315,0.2012391576028999,0.7588537972176124,-3.6041980085548366,22.2
,,0.007215577111099361,0.02720925765689717,0.0014308962788292376,0.03585573104682577,0.44808066925341733,0.2012391576028999,0.7588537972176124,-3.6041980085548366,22.3
,,0.007215577111099361,0.02720925765689717,0.0014308962788292376,0.03585573104682577,0.4442889589244716,0.2012391576028999,0.7588537972176124,-3.6041980085548366,22.4
,,0.01536310729178006,0.05057025715614823,0.0031010883939217686,0.06903445284185006,0.4409262372858636,0.22254260965861727,0.7325365100234636,-2.9843916787509457,22.5
,,0.01536310729178006,0.05057025715614823,0.0031010883939217686,0.06903445284185006,0.4375635156472557,0.22254260965861727,0.7325365100234636,-2.9843916787509457,22.6
,,0.01536310729178006,0.05057025715614823,0.0031010883939217686,0.06903445284185006,0.4333645458019395,0.22254260965861727,0.7325365100234636,-2.9843916787509457,22.7
,,0.01536310729178006,0.05057025715614823,0.0031010883939217686,0.06903445284185006,0.4291655759566231,0.22254260965861727,0.7325365100234636,-2.9843916787509457,22.8
,,0.007069015237514151,0.03031854964814421,0.0016332057976280083,0.03902077068328637,0.42418172610478294,0.1811603183056043,0.7769849010473401,-3.4959955541758276,22.9
,,0.007069015237514151,0.03031854964814421,0.0016332057976280083,0.03902077068328637,0.420298777800166,0.1811603183056043,0.7769849010473401,-3.4959955541758276,23.0
,,0.007069015237514151,0.03031854964814421,0.0016332057976280083,0.03902077068328637,0.41641582949554906,0.1811603183056043,0.7769849010473401,-3.4959955541758276,23.1
,,0.007069015237514151,0.03031854964814421,0.0016332057976280083,0.03902077068328637,0.41253288119093223,0.1811603183056043,0.7769849010473401,-3.4959955541758276,23.2
,,0.007069015237514151,0.03031854964814421,0.0016332057976280083,0.03902077068328637,0.40864993288631524,0.1811603183056043,0.7769849010473401,-3.4959955541758276,23.3
,,0.007327892990843147,0.03366970269971928,0.002010950467586899,0.04300854615814932,0.40459456755467216,0.17038225295729154,0.7828607499521231,-3.3911568756753043,23.4
,,0.007327892990843147,0.03366970269971928,0.002010950467586899,0.04300854615814932,0.40053920222302913,0.17038225295729154,0.7828607499521231,-3.3911568756753043,23.5
,,0.007327892990843147,0.03366970269971928,0.002010950467586899,0.04300854615814932,0.39666874273355385,0.17038225295729154,0.7828607499521231,-3.3911568756753043,23.6
,,0.0074786744478291395,0.03522248379397438,0.0018932954309256078,0.04459445367272913,0.3927392405621131,0.16770413878626744,0.7898400113266553,-3.3460706561413027,23.7
,,0.0074786744478291395,0.03522248379397438,0.0018932954309256078,0.04459445367272913,0.38880973839067234,0.16770413878626744,0.7898400113266553,-3.3460706561413027,23.8
,,0.0074786744478291395,0.03522248379397438,0.0018932954309256078,0.04459445367272913,0.3850222714497233,0.16770413878626744,0.7898400113266553,-3.3460706561413027,23.9
,,0.0074786744478291395,0.03522248379397438,0.0018932954309256078,0.04459445367272913,0.3812348045087743,0.16770413878626744,0.7898400113266553,-3.3460706561413027,24.0
,,0.0074786744478291395,0.03522248379397438,0.0018932954309256078,0.04459445367272913,0.3774473375678252,0.16770413878626744,0.7898400113266553,-3.3460706561413027,24.1
,,0.0074786744478291395,0.03522248379397438,0.0018932954309256078,0.04459445367272913,0.3736598706268761,0.16770413878626744,0.7898400113266553,-3.3460706561413027,24.2
,,0.0074786744478291395,0.03522248379397438,0.0018932954309256078,0.04459445367272913,0.3698724036859271,0.16770413878626744,0.7898400113266553,-3.3460706561413027,24.3
,,0.008167023196218823,0.03960769371325064,0.0014076965812214082,0.04918241349069087,0.36601683872699575,0.16605576295609523,0.8053222870152049,-3.228731893904575,24.4
,,0.008167023196218823,0.03960769371325064,0.0014076965812214082,0.04918241349069087,0.3624028817784678,0.16605576295609523,0.8053222870152049,-3.228731893904575,24.5
,,0.008276943492789488,0.040974943002917805,0.0021640050029673725,0.05141589149867466,0.3587422828741308,0.16098025827292797,0.7969314896343673,-3.194794545374131,24.6
,,0.008276943492789488,0.040974943002917805,0.0021640050029673725,0.05141589149867466,0.3550816839697938,0.16098025827292797,0.7969314896343673,-3.194794545374131,24.7
,,0.008276943492789488,0.040974943002917805,0.0021640050029673725,0.05141589149867466,0.35153637473306554,0.16098025827292797,0.7969314896343673,-3.194794545374131,24.8
,,0.008276943492789488,0.040974943002917805,0.0021640050029673725,0.05141589149867466,0.3479910654963374,0.16098025827292797,0.7969314896343673,-3.194794545374131,24.9
,,0.008276943492789488,0.040974943002917805,0.0021640050029673725,0.05141589149867466,0.34444575625960916,0.16098025827292797,0.7969314896343673,-3.194794545374131,25.0
,,0.008276943492789488,0.040974943002917805,0.0021640050029673725,0.05141589149867466,0.340900447022881,0.16098025827292797,0.7969314896343673,-3.194794545374131,25.1
,,0.008276943492789488,0.040974943002917805,0.0021640050029673725,0.05141589149867466,0.33735513778615284,0.16098025827292797,0.7969314896343673,-3.194794545374131,25.2
,,0.008276943492789488,0.040974943002917805,0.0021640050029673725,0.05141589149867466,0.3338098285494247,0.16098025827292797,0.7969314896343673,-3.194794545374131,25.3
,,0.008276943492789488,0.040974943002917805,0.0021640050029673725,0.05141589149867466,0.33055744240984075,0.16098025827292797,0.7969314896343673,-3.194794545374131,25.4
,,0.013562033991198152,0.048728067617956734,0.002974902199909392,0.06526500380906428,0.3281530636258884,0.20779948210643637,0.7466186282699516,-3.02150007778768,25.5
,,0.013562033991198152,0.048728067617956734,0.002974902199909392,0.06526500380906428,0.3257486848419361,0.20779948210643637,0.7466186282699516,-3.02150007778768,25.6
,,0.013562033991198152,0.048728067617956734,0.002974902199909392,0.06526500380906428,0.3233443060579837,0.20779948210643637,0.7466186282699516,-3.02150007778768,25.7
,,0.013562033991198152,0.048728067617956734,0.002974902199909392,0.06526500380906428,0.32103847463031976,0.20779948210643637,0.7466186282699516,-3.02150007778768,25.8
,,0.013562033991198152,0.048728067617956734,0.002974902199909392,0.06526500380906428,0.31873233376851945,0.20779948210643637,0.7466186282699516,-3.02150007778768,25.9
,,0.013562033991198152,0.048728067617956734,0.002974902199909392,0.06526500380906428,0.3164265023408555,0.20779948210643637,0.7466186282699516,-3.02150007778768,26.0
,,0.013562033991198152,0.048728067617956734,0.002974902199909392,0.06526500380906428,0.3141206709131915,0.20779948210643637,0.7466186282699516,-3.02150007778768,26.1
,,0.013562033991198152,0.048728067617956734,0.002974902199909392,0.06526500380906428,0.3121470229478119,0.20779948210643637,0.7466186282699516,-3.02150007778768,26.2
,,0.013562033991198152,0.048728067617956734,0.002974902199909392,0.06526500380906428,0.31017337498243236,0.20779948210643637,0.7466186282699516,-3.02150007778768,26.3
,,0.009182242062489366,0.04600235605856599,0.002276414584246175,0.05746101270530153,0.3073250931310477,0.15979951675376902,0.8005838026993504,-3.079062665140195,26.4
,,0.009182242062489366,0.04600235605856599,0.002276414584246175,0.05746101270530153,0.30447681127966314,0.15979951675376902,0.8005838026993504,-3.079062665140195,26.5
,,0.010370256956317082,0.05124749120235832,0.0025996548312443753,0.06421740298991978,0.3017340161691901,0.1614867072395454,0.7980312005205605,-2.971088614310921,26.6
,,0.010370256956317082,0.05124749120235832,0.0025996548312443753,0.06421740298991978,0.29899122105871706,0.1614867072395454,0.7980312005205605,-2.971088614310921,26.7
,,0.010370256956317082,0.05124749120235832,0.0025996548312443753,0.06421740298991978,0.296248425948244,0.1614867072395454,0.7980312005205605,-2.971088614310921,26.8
,,0.010370256956317082,0.05124749120235832,0.0025996548312443753,0.06421740298991978,0.293505630837771,0.1614867072395454,0.7980312005205605,-2.971088614310921,26.9
,,0.010370256956317082,0.05124749120235832,0.0025996548312443753,0.06421740298991978,0.2907628357272979,0.1614867072395454,0.7980312005205605,-2.971088614310921,27.0
,,0.010370256956317082,0.05124749120235832,0.0025996548312443753,0.06421740298991978,0.2883721222232351,0.1614867072395454,0.7980312005205605,-2.971088614310921,27.1
,,0.010370256956317082,0.05124749120235832,0.0025996548312443753,0.06421740298991978,0.28598140871917227,0.1614867072395454,0.7980312005205605,-2.971088614310921,27.2
,,0.010297606383444942,0.050207295773618335,0.0024533594887680378,0.06295826164583132,0.2836211997706178,0.16356243190724726,0.7974695371364773,-2.9915949287086123,27.3
,,0.010297606383444942,0.050207295773618335,0.0024533594887680378,0.06295826164583132,0.28126099082206324,0.16356243190724726,0.7974695371364773,-2.9915949287086123,27.4
,,0.010297606383444942,0.050207295773618335,0.0024533594887680378,0.06295826164583132,0.2789464697203958,0.16356243190724726,0.7974695371364773,-2.9915949287086123,27.5
,,0.011843157841724912,0.05644941605286315,0.002814282943770649,0.07110685683835871,0.2766841647669996,0.16655437138287485,0.793867406925114,-2.8744103329419524,27.6
,,0.011843157841724912,0.05644941605286315,0.002814282943770649,0.07110685683835871,0.27442185981360345,0.16655437138287485,0.793867406925114,-2.8744103329419524,27.7
,,0.011843157841724912,0.05644941605286315,0.002814282943770649,0.07110685683835871,0.2721595548602072,0.16655437138287485,0.793867406925114,-2.8744103329419524,27.8
,,0.011843157841724912,0.05644941605286315,0.002814282943770649,0.07110685683835871,0.2698972499068111,0.16655437138287485,0.793867406925114,-2.8744103329419524,27.9
,,0.011843157841724912,0.05644941605286315,0.002814282943770649,0.07110685683835871,0.26695924679601735,0.16655437138287485,0.793867406925114,-2.8744103329419524,28.0
,,0.011605693846379186,0.05400938951817972,0.0026389943671722327,0.06825407773173113,0.2640777064215335,0.17003663710752523,0.7912990888318883,-2.9185973675669405,28.1
,,0.011605693846379186,0.05400938951817972,0.0026389943671722327,0.06825407773173113,0.26119616604704965,0.17003663710752523,0.7912990888318883,-2.9185973675669405,28.2
,,0.011605693846379186,0.05400938951817972,0.0026389943671722327,0.06825407773173113,0.25831462567256575,0.17003663710752523,0.7912990888318883,-2.9185973675669405,28.3
,,0.011605693846379186,0.05400938951817972,0.0026389943671722327,0.06825407773173113,0.2565022876509686,0.17003663710752523,0.7912990888318883,-2.9185973675669405,28.4
,,0.013470154907041844,0.06096847259465222,0.0030754986609489374,0.077514126162643,0.25475721083353686,0.17377677558769442,0.7865466027021438,-2.7973983911286777,28.5
,,0.013470154907041844,0.06096847259465222,0.0030754986609489374,0.077514126162643,0.2530121340161051,0.17377677558769442,0.7865466027021438,-2.7973983911286777,28.6
,,0.013470154907041844,0.06096847259465222,0.0030754986609489374,0.077514126162643,0.25126705719867337,0.17377677558769442,0.7865466027021438,-2.7973983911286777,28.7
,,0.013470154907041844,0.06096847259465222,0.0030754986609489374,0.077514126162643,0.24952198038124165,0.17377677558769442,0.7865466027021438,-2.7973983911286777,28.8
,,0.013470154907041844,0.06096847259465222,0.0030754986609489374,0.077514126162643,0.24811905773373916,0.17377677558769442,0.7865466027021438,-2.7973983911286777,28.9
,,0.012950762156484335,0.056812417799164114,0.0028244414649665514,0.07258762142061499,0.24679413662447566,0.17841557421257917,0.782673638938516,-2.8680003539248857,29.0
,,0.012950762156484335,0.056812417799164114,0.0028244414649665514,0.07258762142061499,0.24546921551521222,0.17841557421257917,0.782673638938516,-2.8680003539248857,29.1
,,0.012950762156484335,0.056812417799164114,0.0028244414649665514,0.07258762142061499,0.24414429440594868,0.17841557421257917,0.782673638938516,-2.8680003539248857,29.2
,,0.012950762156484335,0.056812417799164114,0.0028244414649665514,0.07258762142061499,0.24287347618419516,0.17841557421257917,0.782673638938516,-2.8680003539248857,29.3
,,0.012950762156484335,0.056812417799164114,0.0028244414649665514,0.07258762142061499,0.2416026579624417,0.17841557421257917,0.782673638938516,-2.8680003539248857,29.4
,,0.014983771151738856,0.0637550499219546,0.003326059737877137,0.0820648808115706,0.24041033297425463,0.18258445029784587,0.7768859138215621,-2.752706883618868,29.5
,,0.014983771151738856,0.0637550499219546,0.003326059737877137,0.0820648808115706,0.2392180079860676,0.18258445029784587,0.7768859138215621,-2.752706883618868,29.6
,,0.014983771151738856,0.0637550499219546,0.003326059737877137,0.0820648808115706,0.23802568299788057,0.18258445029784587,0.7768859138215621,-2.752706883618868,29.7
,,0.014983771151738856,0.0637550499219546,0.003326059737877137,0.0820648808115706,0.23718192646976557,0.18258445029784587,0.7768859138215621,-2.752706883618868,29.8
,,0.014041741785226427,0.05774076740145505,0.0029481589155848868,0.07473066810226636,0.23642889207563197,0.18789798273997477,0.7726515615040238,-2.8517918141973744,29.9
,,0.014041741785226427,0.05774076740145505,0.0029481589155848868,0.07473066810226636,0.23567585768149835,0.18789798273997477,0.7726515615040238,-2.8517918141973744,30.0
,,0.014041741785226427,0.05774076740145505,0.0029481589155848868,0.07473066810226636,0.2349228232873647,0.18789798273997477,0.7726515615040238,-2.8517918141973744,30.1
,,0.014041741785226427,0.05774076740145505,0.0029481589155848868,0.07473066810226636,0.2342446168868153,0.18789798273997477,0.7726515615040238,-2.8517918141973744,30.2
,,0.014041741785226427,0.05774076740145505,0.0029481589155848868,0.07473066810226636,0.23356641048626597,0.18789798273997477,0.7726515615040238,-2.8517918141973744,30.3
,,0.014041741785226427,0.05774076740145505,0.0029481589155848868,0.07473066810226636,0.23288820408571656,0.18789798273997477,0.7726515615040238,-2.8517918141973744,30.4
,,0.015499402333965705,0.06216961425790704,0.0034146799159122825,0.08108369650778503,0.23227802436865122,0.19115312943925258,0.7667338433681054,-2.777888915354094,30.5
,,0.015499402333965705,0.06216961425790704,0.0034146799159122825,0.08108369650778503,0.23201730936057718,0.19115312943925258,0.7667338433681054,-2.777888915354094,30.6
,,0.015499402333965705,0.06216961425790704,0.0034146799159122825,0.08108369650778503,0.2317565943525032,0.19115312943925258,0.7667338433681054,-2.777888915354094,30.7
,,0.023124611375934852,0.06833223888092617,0.0029383910533195157,0.09439524131018054,0.23248594649046592,0.24497645278481703,0.7238949541575729,-2.6833736050167922,30.8
,,0.023124611375934852,0.06833223888092617,0.0029383910533195157,0.09439524131018054,0.23321529862842866,0.24497645278481703,0.7238949541575729,-2.6833736050167922,30.9
,,0.023124611375934852,0.06833223888092617,0.0029383910533195157,0.09439524131018054,0.23402892146234622,0.24497645278481703,0.7238949541575729,-2.6833736050167922,31.0
,,0.023124611375934852,0.06833223888092617,0.0029383910533195157,0.09439524131018054,0.23484254429626386,0.24497645278481703,0.7238949541575729,-2.6833736050167922,31.1
,,0.023124611375934852,0.06833223888092617,0.0029383910533195157,0.09439524131018054,0.23565616713018145,0.24497645278481703,0.7238949541575729,-2.6833736050167922,31.2
,,0.023124611375934852,0.06833223888092617,0.0029383910533195157,0.09439524131018054,0.23646978996409898,0.24497645278481703,0.7238949541575729,-2.6833736050167922,31.3
,,0.023842910888414563,0.0696801228247862,0.0032447780958345263,0.09676781180903528,0.2373252159231829,0.24639299414424015,0.7200754209705102,-2.663840183741593,31.4
,,0.023842910888414563,0.0696801228247862,0.0032447780958345263,0.09676781180903528,0.23775165319192884,0.24639299414424015,0.7200754209705102,-2.663840183741593,31.5
,,0.023842910888414563,0.0696801228247862,0.0032447780958345263,0.09676781180903528,0.23817809046067484,0.24639299414424015,0.7200754209705102,-2.663840183741593,31.6
,,0.013139972919072113,0.04913827416109005,0.0026862562217082582,0.06496450330187042,0.2377737661683306,0.20226388644910634,0.7563865136128161,-3.013117033362794,31.7
,,0.013139972919072113,0.04913827416109005,0.0026862562217082582,0.06496450330187042,0.2373694418759864,0.20226388644910634,0.7563865136128161,-3.013117033362794,31.8
,,0.013139972919072113,0.04913827416109005,0.0026862562217082582,0.06496450330187042,0.23774999759016602,0.20226388644910634,0.7563865136128161,-3.013117033362794,31.9
,,0.013139972919072113,0.04913827416109005,0.0026862562217082582,0.06496450330187042,0.23813055330434565,0.20226388644910634,0.7563865136128161,-3.013117033362794,32.0
,,0.013139972919072113,0.04913827416109005,0.0026862562217082582,0.06496450330187042,0.23851110901852526,0.20226388644910634,0.7563865136128161,-3.013117033362794,32.1
,,0.013139972919072113,0.04913827416109005,0.0026862562217082582,0.06496450330187042,0.23889166473270487,0.20226388644910634,0.7563865136128161,-3.013117033362794,32.2
,,0.01303497109148656,0.04959983602082585,0.0030476078916315194,0.06568241500394392,0.2392210493074651,0.19845450400543085,0.7551463510872372,-3.003767751288457,32.3
,,0.01303497109148656,0.04959983602082585,0.0030476078916315194,0.06568241500394392,0.23972285090925144,0.19845450400543085,0.7551463510872372,-3.003767751288457,32.4
,,0.01303497109148656,0.04959983602082585,0.0030476078916315194,0.06568241500394392,0.24022465251103778,0.19845450400543085,0.7551463510872372,-3.003767751288457,32.5
,,0.011765794200088652,0.04446971477742622,0.002442985356565029,0.0586784943340799,0.24074620109757722,0.20051288523358024,0.7578537125414727,-3.112946888300064,32.6
,,0.011765794200088652,0.04446971477742622,0.002442985356565029,0.0586784943340799,0.24132679236608207,0.20051288523358024,0.7578537125414727,-3.112946888300064,32.7
,,0.011765794200088652,0.04446971477742622,0.002442985356565029,0.0586784943340799,0.24190738363458691,0.20051288523358024,0.7578537125414727,-3.112946888300064,32.8
,,0.011765794200088652,0.04446971477742622,0.002442985356565029,0.0586784943340799,0.24248797490309176,0.20051288523358024,0.7578537125414727,-3.112946888300064,32.9
,,0.011765794200088652,0.04446971477742622,0.002442985356565029,0.0586784943340799,0.24306856617159656,0.20051288523358024,0.7578537125414727,-3.112946888300064,33.0
,,0.011765794200088652,0.04446971477742622,0.002442985356565029,0.0586784943340799,0.24364915744010143,0.20051288523358024,0.7578537125414727,-3.112946888300064,33.1
,,0.011520778215552504,0.04611763815610716,0.0028666094573288527,0.060505025828988514,0.24406566989949816,0.19041026853066464,0.7622116927353128,-3.076559795731559,33.2
,,0.011520778215552504,0.04611763815610716,0.0028666094573288527,0.060505025828988514,0.24448218235889496,0.19041026853066464,0.7622116927353128,-3.076559795731559,33.3
,,0.011520778215552504,0.04611763815610716,0.0028666094573288527,0.060505025828988514,0.24496679283627398,0.19041026853066464,0.7622116927353128,-3.076559795731559,33.4
,,0.010522301172389888,0.04283148747238712,0.002308441326774777,0.055662229971551784,0.2454053431174834,0.1890384409278553,0.7694892478127038,-3.1504817582734193,33.5
,,0.010522301172389888,0.04283148747238712,0.002308441326774777,0.055662229971551784,0.245890535354502,0.1890384409278553,0.7694892478127038,-3.1504817582734193,33.6
,,0.010522301172389888,0.04283148747238712,0.002308441326774777,0.055662229971551784,0.24637572759152052,0.1890384409278553,0.7694892478127038,-3.1504817582734193,33.7
,,0.010522301172389888,0.04283148747238712,0.002308441326774777,0.055662229971551784,0.2468609198285391,0.1890384409278553,0.7694892478127038,-3.1504817582734193,33.8
,,0.010522301172389888,0.04283148747238712,0.002308441326774777,0.055662229971551784,0.24734611206555762,0.1890384409278553,0.7694892478127038,-3.1504817582734193,33.9
,,0.010522301172389888,0.04283148747238712,0.002308441326774777,0.055662229971551784,0.24783130430257622,0.1890384409278553,0.7694892478127038,-3.1504817582734193,34.0
,,0.010522301172389888,0.04283148747238712,0.002308441326774777,0.055662229971551784,0.24831649653959476,0.1890384409278553,0.7694892478127038,-3.1504817582734193,34.1
,,0.02173680551613926,0.08680535206882238,0.0025944337268141568,0.11113659131177579,0.24885436836591035,0.1955863974193716,0.781069052453696,-2.444086999437659,34.2
,,0.02173680551613926,0.08680535206882238,0.0025944337268141568,0.11113659131177579,0.2493922401922259,0.1955863974193716,0.781069052453696,-2.444086999437659,34.3
,,0.00936875497094883,0.043798561446224876,0.0021865804635430313,0.055353896880716735,0.24952452262099678,0.1692519497071318,0.7912462159729658,-3.1281543058325987,34.4
,,0.00936875497094883,0.043798561446224876,0.0021865804635430313,0.055353896880716735,0.24880879769413602,0.1692519497071318,0.7912462159729658,-3.1281543058325987,34.5
,,0.00936875497094883,0.043798561446224876,0.0021865804635430313,0.055353896880716735,0.2480930727672753,0.1692519497071318,0.7912462159729658,-3.1281543058325987,34.6
,,0.00936875497094883,0.043798561446224876,0.0021865804635430313,0.055353896880716735,0.24737734784041462,0.1692519497071318,0.7912462159729658,-3.1281543058325987,34.7
,,0.00936875497094883,0.043798561446224876,0.0021865804635430313,0.055353896880716735,0.24666162291355392,0.1692519497071318,0.7912462159729658,-3.1281543058325987,34.8
,,0.00936875497094883,0.043798561446224876,0.0021865804635430313,0.055353896880716735,0.2459458979866932,0.1692519497071318,0.7912462159729658,-3.1281543058325987,34.9
,,0.00936875497094883,0.043798561446224876,0.0021865804635430313,0.055353896880716735,0.2452301730598325,0.1692519497071318,0.7912462159729658,-3.1281543058325987,35.0
,,0.00936875497094883,0.043798561446224876,0.0021865804635430313,0.055353896880716735,0.2445144481329718,0.1692519497071318,0.7912462159729658,-3.1281543058325987,35.1
,,0.008721668512554986,0.04571628944782127,0.002379560081198159,0.05681751804157442,0.24354175204856804,0.15350315911675658,0.8046160941836604,-3.0853006015331674,35.2
,,,0.09831771132797962,0.0021845793045054346,0.10050229063248506,0.24315097640659744,,0.9782633879212368,-2.319551091782315,35.3
,,,0.09831771132797962,0.0021845793045054346,0.10050229063248506,0.24364583142890536,,0.9782633879212368,-2.319551091782315,35.4
,,,0.09831771132797962,0.0021845793045054346,0.10050229063248506,0.24415206242873763,,0.9782633879212368,-2.319551091782315,35.5
,,,0.09831771132797962,0.0021845793045054346,0.10050229063248506,0.2446380587014408,,0.9782633879212368,-2.319551091782315,35.6
,,,0.09831771132797962,0.0021845793045054346,0.10050229063248506,0.24513549018056058,,0.9782633879212368,-2.319551091782315,35.7
,,,0.09831771132797962,0.0021845793045054346,0.10050229063248506,0.24564476526632598,,0.9782633879212368,-2.319551091782315,35.8
,,,0.09831771132797962,0.0021845793045054346,0.10050229063248506,0.24616631204090506,,0.9782633879212368,-2.319551091782315,35.9
,,,0.09831771132797962,0.0021845793045054346,0.10050229063248506,0.24670057946852267,,0.9782633879212368,-2.319551091782315,36.0
,,0.007576148163505766,0.0475504804610542,0.0021177087063591806,0.05724433733091915,0.24617584955696126,0.1323475564003724,0.8306582393673889,-3.0459633857083643,36.1
,,0.007381825516211483,0.049224679467140806,0.0019444624515873206,0.05855096743493961,0.2455368922137303,0.12607521001961217,0.8407150491892053,-3.0113601660649274,36.2
,,0.007381825516211483,0.049224679467140806,0.0019444624515873206,0.05855096743493961,0.2448644542607951,0.12607521001961217,0.8407150491892053,-3.0113601660649274,36.3
,,0.007381825516211483,0.049224679467140806,0.0019444624515873206,0.05855096743493961,0.24419201630785997,0.12607521001961217,0.8407150491892053,-3.0113601660649274,36.4
,,0.007381825516211483,0.049224679467140806,0.0019444624515873206,0.05855096743493961,0.24351957835492483,0.12607521001961217,0.8407150491892053,-3.0113601660649274,36.5
,,0.007381825516211483,0.049224679467140806,0.0019444624515873206,0.05855096743493961,0.24278982999535048,0.12607521001961217,0.8407150491892053,-3.0113601660649274,36.6
,,0.007381825516211483,0.049224679467140806,0.0019444624515873206,0.05855096743493961,0.24206008163577608,0.12607521001961217,0.8407150491892053,-3.0113601660649274,36.7
,,0.007381825516211483,0.049224679467140806,0.0019444624515873206,0.05855096743493961,0.24133033327620174,0.12607521001961217,0.8407150491892053,-3.0113601660649274,36.8
,,0.007381825516211483,0.049224679467140806,0.0019444624515873206,0.05855096743493961,0.24060058491662734,0.12607521001961217,0.8407150491892053,-3.0113601660649274,36.9
,,0.007381825516211483,0.049224679467140806,0.0019444624515873206,0.05855096743493961,0.239870836557053,0.12607521001961217,0.8407150491892053,-3.0113601660649274,37.0
,,0.007180393312303562,0.056467179097032055,0.002053898761030203,0.06570147117036583,0.23880105097598225,0.10928816637430526,0.8594507564467014,-2.8740957105555465,37.1
,,0.007180393312303562,0.056467179097032055,0.002053898761030203,0.06570147117036583,0.23773126539491152,0.10928816637430526,0.8594507564467014,-2.8740957105555465,37.2
,,0.007180393312303562,0.056467179097032055,0.002053898761030203,0.06570147117036583,0.23666147981384084,0.10928816637430526,0.8594507564467014,-2.8740957105555465,37.3
,,0.007180393312303562,0.056467179097032055,0.002053898761030203,0.06570147117036583,0.2355916942327701,0.10928816637430526,0.8594507564467014,-2.8740957105555465,37.4
,,0.007180393312303562,0.056467179097032055,0.002053898761030203,0.06570147117036583,0.23444808537883488,0.10928816637430526,0.8594507564467014,-2.8740957105555465,37.5
,,0.007180393312303562,0.056467179097032055,0.002053898761030203,0.06570147117036583,0.2333044765248997,0.10928816637430526,0.8594507564467014,-2.8740957105555465,37.6
,,0.007180393312303562,0.056467179097032055,0.002053898761030203,0.06570147117036583,0.23216086767096447,0.10928816637430526,0.8594507564467014,-2.8740957105555465,37.7
,,0.007180393312303562,0.056467179097032055,0.002053898761030203,0.06570147117036583,0.23101725881702928,0.10928816637430526,0.8594507564467014,-2.8740957105555465,37.8
,,0.007356289146470185,0.05971371320021894,0.0022601956054988763,0.069330197952188,0.22982526156329272,0.10610512249717335,0.8612944281711,-2.8181935831147973,37.9
,,0.014480187490476573,0.12151660206234993,0.0026375324007692474,0.13863432195359576,0.22849850151258153,0.10444879223575991,0.8765261037091844,-2.1077043830477917,38.0
,,0.014480187490476573,0.12151660206234993,0.0026375324007692474,0.13863432195359576,0.22717174146187025,0.10444879223575991,0.8765261037091844,-2.1077043830477917,38.1
,,0.014480187490476573,0.12151660206234993,0.0026375324007692474,0.13863432195359576,0.22584498141115908,0.10444879223575991,0.8765261037091844,-2.1077043830477917,38.2
,,0.014480187490476573,0.12151660206234993,0.0026375324007692474,0.13863432195359576,0.2245182213604478,0.10444879223575991,0.8765261037091844,-2.1077043830477917,38.3
,,0.014480187490476573,0.12151660206234993,0.0026375324007692474,0.13863432195359576,0.22319146130973655,0.10444879223575991,0.8765261037091844,-2.1077043830477917,38.4
,,0.014480187490476573,0.12151660206234993,0.0026375324007692474,0.13863432195359576,0.22177855014901338,0.10444879223575991,0.8765261037091844,-2.1077043830477917,38.5
,,0.014480187490476573,0.12151660206234993,0.0026375324007692474,0.13863432195359576,0.22036563898829012,0.10444879223575991,0.8765261037091844,-2.1077043830477917,38.6
,,0.014480187490476573,0.12151660206234993,0.0026375324007692474,0.13863432195359576,0.21895272782756692,0.10444879223575991,0.8765261037091844,-2.1077043830477917,38.7
,,0.00769607179692128,0.06851241130752866,0.0026615759998205786,0.07887005910427052,0.21745650989765825,0.09757913058929821,0.868674527262006,-2.6807403631551128,38.8
,,0.00769607179692128,0.06851241130752866,0.0026615759998205786,0.07887005910427052,0.21586071889386754,0.09757913058929821,0.868674527262006,-2.6807403631551128,38.9
,,0.007688066708262618,0.07237541354933492,0.002658430530703267,0.08272191078830081,0.21419046178776538,0.09293869828439608,0.8749243442230886,-2.6258886291248547,39.0
,,0.007688066708262618,0.07237541354933492,0.002658430530703267,0.08272191078830081,0.21252020468166327,0.09293869828439608,0.8749243442230886,-2.6258886291248547,39.1
,,0.007688066708262618,0.07237541354933492,0.002658430530703267,0.08272191078830081,0.21084994757556108,0.09293869828439608,0.8749243442230886,-2.6258886291248547,39.2
,,0.007688066708262618,0.07237541354933492,0.002658430530703267,0.08272191078830081,0.2091796904694589,0.09293869828439608,0.8749243442230886,-2.6258886291248547,39.3
,,0.007688066708262618,0.07237541354933492,0.002658430530703267,0.08272191078830081,0.20750943336335675,0.09293869828439608,0.8749243442230886,-2.6258886291248547,39.4
,,0.007688066708262618,0.07237541354933492,0.002658430530703267,0.08272191078830081,0.20576451282416233,0.09293869828439608,0.8749243442230886,-2.6258886291248547,39.5
,,0.007688066708262618,0.07237541354933492,0.002658430530703267,0.08272191078830081,0.2040195922849679,0.09293869828439608,0.8749243442230886,-2.6258886291248547,39.6
,,,0.09711944137742037,0.0027023933633988826,0.09982183474081925,0.20346047214041724,,0.9729278331698124,-2.3318137035674296,39.7
,,,0.09711944137742037,0.0027023933633988826,0.09982183474081925,0.20177354845296142,,0.9729278331698124,-2.3318137035674296,39.8
,,,0.09711944137742037,0.0027023933633988826,0.09982183474081925,0.20004391783670927,,0.9729278331698124,-2.3318137035674296,39.9
,,,0.09435638285565899,0.002782153162778256,0.09713853601843725,0.19826993771747628,,0.9713589140127642,-2.3606763586273978,40.0
,,,0.09435638285565899,0.002782153162778256,0.09713853601843725,0.19644988019254894,,0.9713589140127642,-2.3606763586273978,40.1
,,,0.09435638285565899,0.002782153162778256,0.09713853601843725,0.19458192641696562,,0.9713589140127642,-2.3606763586273978,40.2
,,,0.09435638285565899,0.002782153162778256,0.09713853601843725,0.19266416054070007,,0.9713589140127642,-2.3606763586273978,40.3
,,,0.09435638285565899,0.002782153162778256,0.09713853601843725,0.1906437215155494,,0.9713589140127642,-2.3606763586273978,40.4
,,0.008779883395803743,0.0795492585659674,0.0038731822007599865,0.09220232416253112,0.1875112046296552,0.09522410064552021,0.862768474531517,-2.531378844594166,40.5
,,0.008779883395803743,0.0795492585659674,0.0038731822007599865,0.09220232416253112,0.18437868774376098,0.09522410064552021,0.862768474531517,-2.531378844594166,40.6
,,0.008779883395803743,0.0795492585659674,0.0038731822007599865,0.09220232416253112,0.1822565565402737,0.09522410064552021,0.862768474531517,-2.531378844594166,40.7
,,0.008779883395803743,0.0795492585659674,0.0038731822007599865,0.09220232416253112,0.18013442533678645,0.09522410064552021,0.862768474531517,-2.531378844594166,40.8
,,0.00920314095049825,0.08458302848659605,0.004270551708610842,0.09805672114570514,0.17799115360084627,0.09385527930128372,0.8625928697015254,-2.4700216414001015,40.9
,,0.00920314095049825,0.08458302848659605,0.004270551708610842,0.09805672114570514,0.1758478818649061,0.09385527930128372,0.8625928697015254,-2.4700216414001015,41.0
,,0.00920314095049825,0.08458302848659605,0.004270551708610842,0.09805672114570514,0.17370461012896596,0.09385527930128372,0.8625928697015254,-2.4700216414001015,41.1
,,0.00920314095049825,0.08458302848659605,0.004270551708610842,0.09805672114570514,0.17156133839302581,0.09385527930128372,0.8625928697015254,-2.4700216414001015,41.2
,,0.00920314095049825,0.08458302848659605,0.004270551708610842,0.09805672114570514,0.16948030182664975,0.09385527930128372,0.8625928697015254,-2.4700216414001015,41.3
,,0.00994316686106776,0.08488235030030394,0.0049199620866636,0.09974547924803531,0.16751189458637014,0.09968538861137018,0.8509894477445791,-2.466489095376633,41.4
,,0.00994316686106776,0.08488235030030394,0.0049199620866636,0.09974547924803531,0.16554348734609056,0.09968538861137018,0.8509894477445791,-2.466489095376633,41.5
,,0.00994316686106776,0.08488235030030394,0.0049199620866636,0.09974547924803531,0.1635510635027328,0.09968538861137018,0.8509894477445791,-2.466489095376633,41.6
,,0.00994316686106776,0.08488235030030394,0.0049199620866636,0.09974547924803531,0.16155863965937506,0.09968538861137018,0.8509894477445791,-2.466489095376633,41.7
,,0.00994316686106776,0.08488235030030394,0.0049199620866636,0.09974547924803531,0.1595662158160173,0.09968538861137018,0.8509894477445791,-2.466489095376633,41.8
,,0.00948291324316888,0.09391170047864586,0.004413392189839257,0.107808005911654,0.15735536412847217,0.08796112276615053,0.8711013591662587,-2.3654002947941923,41.9
,,0.00948291324316888,0.09391170047864586,0.004413392189839257,0.107808005911654,0.15514451244092703,0.08796112276615053,0.8711013591662587,-2.3654002947941923,42.0
,,0.00948291324316888,0.09391170047864586,0.004413392189839257,0.107808005911654,0.1529336607533819,0.08796112276615053,0.8711013591662587,-2.3654002947941923,42.1
,,0.011764337433398657,0.09048377959677445,0.006379373632125944,0.10862749066229906,0.1513147842743169,0.10829981767664695,0.8329731179934025,-2.402584675314915,42.2
,,0.011764337433398657,0.09048377959677445,0.006379373632125944,0.10862749066229906,0.1496959077952519,0.10829981767664695,0.8329731179934025,-2.402584675314915,42.3
,,0.011764337433398657,0.09048377959677445,0.006379373632125944,0.10862749066229906,0.1480770313161869,0.10829981767664695,0.8329731179934025,-2.402584675314915,42.4
,,0.011764337433398657,0.09048377959677445,0.006379373632125944,0.10862749066229906,0.14651417399462552,0.10829981767664695,0.8329731179934025,-2.402584675314915,42.5
,,0.011764337433398657,0.09048377959677445,0.006379373632125944,0.10862749066229906,0.1449513166730641,0.10829981767664695,0.8329731179934025,-2.402584675314915,42.6
,,0.013048266628596535,0.09803547139566234,0.007792620224675558,0.11887635824893443,0.14343010017749028,0.109763344207371,0.824684342957159,-2.3224259127837934,42.7
,,0.013048266628596535,0.09803547139566234,0.007792620224675558,0.11887635824893443,0.14190888368191645,0.109763344207371,0.824684342957159,-2.3224259127837934,42.8
,,0.013048266628596535,0.09803547139566234,0.007792620224675558,0.11887635824893443,0.14038766718634263,0.109763344207371,0.824684342957159,-2.3224259127837934,42.9
,,0.013048266628596535,0.09803547139566234,0.007792620224675558,0.11887635824893443,0.1388664506907688,0.109763344207371,0.824684342957159,-2.3224259127837934,43.0
,,0.01403542551588136,0.09385988249901714,0.008093443299608961,0.11598875131450745,0.13756737655447135,0.12100678175096329,0.8092153888657088,-2.3659522204915997,43.1
,,0.01403542551588136,0.09385988249901714,0.008093443299608961,0.11598875131450745,0.13620423264740725,0.12100678175096329,0.8092153888657088,-2.3659522204915997,43.2
,,0.01403542551588136,0.09385988249901714,0.008093443299608961,0.11598875131450745,0.13484108874034312,0.12100678175096329,0.8092153888657088,-2.3659522204915997,43.3
,,0.01403542551588136,0.09385988249901714,0.008093443299608961,0.11598875131450745,0.13397122923569832,0.12100678175096329,0.8092153888657088,-2.3659522204915997,43.4
,,0.01403542551588136,0.09385988249901714,0.008093443299608961,0.11598875131450745,0.1331013697310535,0.12100678175096329,0.8092153888657088,-2.3659522204915997,43.5
,,0.01569979811177145,0.10050682892885486,0.00996023149016283,0.12616685853078916,0.132321650024606,0.12443678391136408,0.7966183045155845,-2.2975296042506277,43.6
,,0.01569979811177145,0.10050682892885486,0.00996023149016283,0.12616685853078916,0.1315419303181585,0.12443678391136408,0.7966183045155845,-2.2975296042506277,43.7
,,0.01569979811177145,0.10050682892885486,0.00996023149016283,0.12616685853078916,0.130762210611711,0.12443678391136408,0.7966183045155845,-2.2975296042506277,43.8
,,0.01569979811177145,0.10050682892885486,0.00996023149016283,0.12616685853078916,0.1299824909052635,0.12443678391136408,0.7966183045155845,-2.2975296042506277,43.9
,,0.00822161997759381,0.08494081296686666,0.00588636190233212,0.09904879484679259,0.1283998800728037,0.0830057547929877,0.8575653353304502,-2.4658005830706853,44.0
,,0.00822161997759381,0.08494081296686666,0.00588636190233212,0.09904879484679259,0.1268172692403439,0.0830057547929877,0.8575653353304502,-2.4658005830706853,44.1
,,0.00822161997759381,0.08494081296686666,0.00588636190233212,0.09904879484679259,0.1255471908967878,0.0830057547929877,0.8575653353304502,-2.4658005830706853,44.2
,,0.00822161997759381,0.08494081296686666,0.00588636190233212,0.09904879484679259,0.12516379287369012,0.0830057547929877,0.8575653353304502,-2.4658005830706853,44.3
,,0.00822161997759381,0.08494081296686666,0.00588636190233212,0.09904879484679259,0.12479048427225285,0.0830057547929877,0.8575653353304502,-2.4658005830706853,44.4
,,0.017825956442896678,0.09599066050538224,0.011399903021161565,0.1252165199694405,0.1255815833448533,0.1423610594452486,0.766597414852362,-2.343504378649198,44.5
,,0.017825956442896678,0.09599066050538224,0.011399903021161565,0.1252165199694405,0.1263523978258486,0.1423610594452486,0.766597414852362,-2.343504378649198,44.6
,,0.017825956442896678,0.09599066050538224,0.011399903021161565,0.1252165199694405,0.1271036980161858,0.1423610594452486,0.766597414852362,-2.343504378649198,44.7
,,0.017825956442896678,0.09599066050538224,0.011399903021161565,0.1252165199694405,0.12783621570176457,0.1423610594452486,0.766597414852362,-2.343504378649198,44.8
,,0.018226947443123687,0.08716202535242296,0.010416367243034838,0.11580534003858148,0.12883966605411498,0.1573929789166133,0.7526598110534819,-2.439986531997829,44.9
,,0.018226947443123687,0.08716202535242296,0.010416367243034838,0.11580534003858148,0.12981864200762758,0.1573929789166133,0.7526598110534819,-2.439986531997829,45.0
,,0.018226947443123687,0.08716202535242296,0.010416367243034838,0.11580534003858148,0.13042580254438274,0.1573929789166133,0.7526598110534819,-2.439986531997829,45.1
,,0.018226947443123687,0.08716202535242296,0.010416367243034838,0.11580534003858148,0.13114719051280743,0.1573929789166133,0.7526598110534819,-2.439986531997829,45.2
,,0.018226947443123687,0.08716202535242296,0.010416367243034838,0.11580534003858148,0.13186857848123212,0.1573929789166133,0.7526598110534819,-2.439986531997829,45.3
,,0.007701577579591475,0.08607324340837734,0.007811048503676943,0.10158586949164576,0.1311309582636998,0.07581347305616003,0.8472954342873036,-2.4525566776523724,45.4
,,0.007701577579591475,0.08607324340837734,0.007811048503676943,0.10158586949164576,0.1303933380461675,0.07581347305616003,0.8472954342873036,-2.4525566776523724,45.5
,,0.007701577579591475,0.08607324340837734,0.007811048503676943,0.10158586949164576,0.1296557178286352,0.07581347305616003,0.8472954342873036,-2.4525566776523724,45.6
,,0.007701577579591475,0.08607324340837734,0.007811048503676943,0.10158586949164576,0.12891809761110287,0.07581347305616003,0.8472954342873036,-2.4525566776523724,45.7
,,0.007701577579591475,0.08607324340837734,0.007811048503676943,0.10158586949164576,0.12818047739357055,0.07581347305616003,0.8472954342873036,-2.4525566776523724,45.8
,,0.0178137704740692,0.07397246997277862,0.00939702797575715,0.10118326842260497,0.12928845711828962,0.17605450734866254,0.731074130396965,-2.6040622823922104,45.9
,,0.0178137704740692,0.07397246997277862,0.00939702797575715,0.10118326842260497,0.13039643684300867,0.17605450734866254,0.731074130396965,-2.6040622823922104,46.0
,,0.0178137704740692,0.07397246997277862,0.00939702797575715,0.10118326842260497,0.13178248249327423,0.17605450734866254,0.731074130396965,-2.6040622823922104,46.1
,,0.0178137704740692,0.07397246997277862,0.00939702797575715,0.10118326842260497,0.1331685281435398,0.17605450734866254,0.731074130396965,-2.6040622823922104,46.2
,,0.017394175411220486,0.07223903392954353,0.009526621984326085,0.0991598313250901,0.13455420990190864,0.1754155405347013,0.7285110610234078,-2.6277747430311615,46.3
,,0.017394175411220486,0.07223903392954353,0.009526621984326085,0.0991598313250901,0.13593989166027745,0.1754155405347013,0.7285110610234078,-2.6277747430311615,46.4
,,0.017394175411220486,0.07223903392954353,0.009526621984326085,0.0991598313250901,0.13732557341864626,0.1754155405347013,0.7285110610234078,-2.6277747430311615,46.5
,,0.017394175411220486,0.07223903392954353,0.009526621984326085,0.0991598313250901,0.13871125517701507,0.1754155405347013,0.7285110610234078,-2.6277747430311615,46.6
,,0.017394175411220486,0.07223903392954353,0.009526621984326085,0.0991598313250901,0.1400969369353839,0.1754155405347013,0.7285110610234078,-2.6277747430311615,46.7
,,0.017394175411220486,0.07223903392954353,0.009526621984326085,0.0991598313250901,0.14148261869375273,0.1754155405347013,0.7285110610234078,-2.6277747430311615,46.8
,,0.015086637587769304,0.0557059685774162,0.006986494212672267,0.07777910037785776,0.14328302852510627,0.19396775630570529,0.7162074169898041,-2.8876679820012283,46.9
,,0.015086637587769304,0.0557059685774162,0.006986494212672267,0.07777910037785776,0.14513258970902593,0.19396775630570529,0.7162074169898041,-2.8876679820012283,47.0
,,0.015086637587769304,0.0557059685774162,0.006986494212672267,0.07777910037785776,0.1469821508929456,0.19396775630570529,0.7162074169898041,-2.8876679820012283,47.1
,,0.01501740455088729,0.057467242195623616,0.007037471371970133,0.07952211811848105,0.14871579616989986,0.18884563070255073,0.7226573380503072,-2.8565401944657527,47.2
,,0.01501740455088729,0.057467242195623616,0.007037471371970133,0.07952211811848105,0.1504494414468541,0.18884563070255073,0.7226573380503072,-2.8565401944657527,47.3
,,0.01501740455088729,0.057467242195623616,0.007037471371970133,0.07952211811848105,0.15218308672380834,0.18884563070255073,0.7226573380503072,-2.8565401944657527,47.4
,,0.01501740455088729,0.057467242195623616,0.007037471371970133,0.07952211811848105,0.15391673200076258,0.18884563070255073,0.7226573380503072,-2.8565401944657527,47.5
,,0.01501740455088729,0.057467242195623616,0.007037471371970133,0.07952211811848105,0.1556503772777168,0.18884563070255073,0.7226573380503072,-2.8565401944657527,47.6
,,0.01501740455088729,0.057467242195623616,0.007037471371970133,0.07952211811848105,0.15738402255467107,0.18884563070255073,0.7226573380503072,-2.8565401944657527,47.7
,,0.014439144273886886,0.04844561646450657,0.0057089930620408975,0.06859375380043435,0.15964886962229302,0.21050231943707176,0.7062686291444776,-3.027313420187293,47.8
,,0.014439144273886886,0.04844561646450657,0.0057089930620408975,0.06859375380043435,0.16191371668991497,0.21050231943707176,0.7062686291444776,-3.027313420187293,47.9
,,0.014439144273886886,0.04844561646450657,0.0057089930620408975,0.06859375380043435,0.16425302985984844,0.21050231943707176,0.7062686291444776,-3.027313420187293,48.0
,,0.014650578238125097,0.05195801351714528,0.005633574406129134,0.07224216616139952,0.16639625816184272,0.20279815814760555,0.7192200383507814,-2.9573193189123845,48.1
,,0.014650578238125097,0.05195801351714528,0.005633574406129134,0.07224216616139952,0.16853948646383698,0.20279815814760555,0.7192200383507814,-2.9573193189123845,48.2
,,0.014650578238125097,0.05195801351714528,0.005633574406129134,0.07224216616139952,0.17068271476583127,0.20279815814760555,0.7192200383507814,-2.9573193189123845,48.3
,,0.014650578238125097,0.05195801351714528,0.005633574406129134,0.07224216616139952,0.17282594306782553,0.20279815814760555,0.7192200383507814,-2.9573193189123845,48.4
,,0.014650578238125097,0.05195801351714528,0.005633574406129134,0.07224216616139952,0.17496917136981985,0.20279815814760555,0.7192200383507814,-2.9573193189123845,48.5
,,0.014650578238125097,0.05195801351714528,0.005633574406129134,0.07224216616139952,0.1771123996718141,0.20279815814760555,0.7192200383507814,-2.9573193189123845,48.6
,,0.01546251651301607,0.0467499089958779,0.005006088889368646,0.06721851439826261,0.17896345100302763,0.23003359493193035,0.6954915533968754,-3.0629429698615733,48.7
,,0.01546251651301607,0.0467499089958779,0.005006088889368646,0.06721851439826261,0.18077042968349794,0.23003359493193035,0.6954915533968754,-3.0629429698615733,48.8
,,0.01546251651301607,0.0467499089958779,0.005006088889368646,0.06721851439826261,0.18253489121854544,0.23003359493193035,0.6954915533968754,-3.0629429698615733,48.9
,,0.01546251651301607,0.0467499089958779,0.005006088889368646,0.06721851439826261,0.1842583187644058,0.23003359493193035,0.6954915533968754,-3.0629429698615733,49.0
,,,0.09413257620168511,0.005514402916840447,0.09964697911852556,0.1842583187644058,,0.9446606112335697,-2.363051105246738,49.1
,,,0.09413257620168511,0.005514402916840447,0.09964697911852556,0.1842583187644058,,0.9446606112335697,-2.363051105246738,49.2
,,,0.09413257620168511,0.005514402916840447,0.09964697911852556,0.1842583187644058,,0.9446606112335697,-2.363051105246738,49.3
,,,0.09413257620168511,0.005514402916840447,0.09964697911852556,0.1842583187644058,,0.9446606112335697,-2.363051105246738,49.4
,,,0.09413257620168511,0.005514402916840447,0.09964697911852556,0.18512758841050847,,0.9446606112335697,-2.363051105246738,49.5
,,,0.09413257620168511,0.005514402916840447,0.09964697911852556,0.18601755495294695,,0.9446606112335697,-2.363051105246738,49.6
,,0.01628128376374887,0.043834249539233885,0.004215071051438032,0.06433060435442078,0.18912538791768108,0.25308768551355953,0.6813902959427367,-3.127339814215118,49.7
,,0.01628128376374887,0.043834249539233885,0.004215071051438032,0.06433060435442078,0.19223322088241518,0.25308768551355953,0.6813902959427367,-3.127339814215118,49.8
,,0.01628128376374887,0.043834249539233885,0.004215071051438032,0.06433060435442078,0.19535967764954829,0.25308768551355953,0.6813902959427367,-3.127339814215118,49.9
,,0.0165238540689879,0.04602804121931791,0.003791754798540448,0.06634365008684626,0.19833812263568182,0.24906459091951638,0.6937821654229986,-3.078504476494301,50.0
,,0.0165238540689879,0.04602804121931791,0.003791754798540448,0.06634365008684626,0.2013165676218153,0.24906459091951638,0.6937821654229986,-3.078504476494301,50.1
,,0.0165238540689879,0.04602804121931791,0.003791754798540448,0.06634365008684626,0.20429501260794888,0.24906459091951638,0.6937821654229986,-3.078504476494301,50.2
,,0.0165238540689879,0.04602804121931791,0.003791754798540448,0.06634365008684626,0.20727345759408236,0.24906459091951638,0.6937821654229986,-3.078504476494301,50.3
,,0.0165238540689879,0.04602804121931791,0.003791754798540448,0.06634365008684626,0.21015268150722616,0.24906459091951638,0.6937821654229986,-3.078504476494301,50.4
,,0.0165238540689879,0.04602804121931791,0.003791754798540448,0.06634365008684626,0.21303190542036998,0.24906459091951638,0.6937821654229986,-3.078504476494301,50.5
,,0.0165238540689879,0.04602804121931791,0.003791754798540448,0.06634365008684626,0.21591112933351378,0.24906459091951638,0.6937821654229986,-3.078504476494301,50.6
,,0.016498018864996692,0.039124879001911396,0.0034898659743244458,0.05911276384123254,0.21953655002493078,0.2790940195134124,0.6618685451249511,-3.2409967227295056,50.7
,,0.016498018864996692,0.039124879001911396,0.0034898659743244458,0.05911276384123254,0.22316197071634772,0.2790940195134124,0.6618685451249511,-3.2409967227295056,50.8
,,0.016498018864996692,0.039124879001911396,0.0034898659743244458,0.05911276384123254,0.2269798159371679,0.2790940195134124,0.6618685451249511,-3.2409967227295056,50.9
,,0.01644287631868867,0.03964274338288364,0.0030503440888743913,0.05913596379044671,0.23071552474234883,0.27805205605433936,0.6703660656205935,-3.2278473644760317,51.0
,,0.01644287631868867,0.03964274338288364,0.0030503440888743913,0.05913596379044671,0.23445123354752978,0.27805205605433936,0.6703660656205935,-3.2278473644760317,51.1
,,0.01644287631868867,0.03964274338288364,0.0030503440888743913,0.05913596379044671,0.23784123910737973,0.27805205605433936,0.6703660656205935,-3.2278473644760317,51.2
,,0.01644287631868867,0.03964274338288364,0.0030503440888743913,0.05913596379044671,0.2412312446672297,0.27805205605433936,0.6703660656205935,-3.2278473644760317,51.3
,,0.01644287631868867,0.03964274338288364,0.0030503440888743913,0.05913596379044671,0.24462125022707965,0.27805205605433936,0.6703660656205935,-3.2278473644760317,51.4
,,0.01644287631868867,0.03964274338288364,0.0030503440888743913,0.05913596379044671,0.24801125578692962,0.27805205605433936,0.6703660656205935,-3.2278473644760317,51.5
,,0.016149077944807973,0.03445289442643473,0.0029733339047047945,0.0535753062759475,0.252043556109196,0.30142763648666365,0.6430741477982418,-3.3681622668679174,51.6
,,0.016149077944807973,0.03445289442643473,0.0029733339047047945,0.0535753062759475,0.2560391728466638,0.30142763648666365,0.6430741477982418,-3.3681622668679174,51.7
,,0.016149077944807973,0.03445289442643473,0.0029733339047047945,0.0535753062759475,0.26003478958413156,0.30142763648666365,0.6430741477982418,-3.3681622668679174,51.8
,,0.015953638970013197,0.03388976769498492,0.0026180877165970784,0.0524614943815952,0.2640544741889762,0.3041018781121518,0.6459931821323469,-3.384642148064011,51.9
,,0.015953638970013197,0.03388976769498492,0.0026180877165970784,0.0524614943815952,0.2680741587938209,0.3041018781121518,0.6459931821323469,-3.384642148064011,52.0
,,0.015953638970013197,0.03388976769498492,0.0026180877165970784,0.0524614943815952,0.27189814655835065,0.3041018781121518,0.6459931821323469,-3.384642148064011,52.1
,,0.015953638970013197,0.03388976769498492,0.0026180877165970784,0.0524614943815952,0.2757221343228804,0.3041018781121518,0.6459931821323469,-3.384642148064011,52.2
,,0.015953638970013197,0.03388976769498492,0.0026180877165970784,0.0524614943815952,0.2795461220874102,0.3041018781121518,0.6459931821323469,-3.384642148064011,52.3
,,0.015953638970013197,0.03388976769498492,0.0026180877165970784,0.0524614943815952,0.28337010985193994,0.3041018781121518,0.6459931821323469,-3.384642148064011,52.4
,,0.008401419072905137,0.10467136748877935,0.007610179373790082,0.12068296593547456,0.2825454526232969,0.06961561648557026,0.8673251164936059,-2.2569296704373425,52.5
,,0.008401419072905137,0.10467136748877935,0.007610179373790082,0.12068296593547456,0.28164138652481335,0.06961561648557026,0.8673251164936059,-2.2569296704373425,52.6
,,0.008401419072905137,0.10467136748877935,0.007610179373790082,0.12068296593547456,0.2807373204263297,0.06961561648557026,0.8673251164936059,-2.2569296704373425,52.7
,,0.009944402039275813,0.10531051162608383,0.007442269310893295,0.12269718297625294,0.2800018806270306,0.08104833214630912,0.8582960836718301,-2.2508420393155735,52.8
,,0.009944402039275813,0.10531051162608383,0.007442269310893295,0.12269718297625294,0.27926644082773133,0.08104833214630912,0.8582960836718301,-2.2508420393155735,52.9
,,0.009944402039275813,0.10531051162608383,0.007442269310893295,0.12269718297625294,0.2792383098775382,0.08104833214630912,0.8582960836718301,-2.2508420393155735,53.0
,,0.009944402039275813,0.10531051162608383,0.007442269310893295,0.12269718297625294,0.2792101789273451,0.08104833214630912,0.8582960836718301,-2.2508420393155735,53.1
,,0.009944402039275813,0.10531051162608383,0.007442269310893295,0.12269718297625294,0.27918204797715196,0.08104833214630912,0.8582960836718301,-2.2508420393155735,53.2
,,,0.11744835604166542,0.009582227442117109,0.12703058348378254,0.2813795143483892,,0.9245675554710773,-2.1417565650661468,53.3
,,0.009944402039275813,0.10531051162608383,0.007442269310893295,0.12269718297625294,0.28135104447108533,0.08104833214630912,0.8582960836718301,-2.2508420393155735,53.4
,,0.014933186718830883,0.02767978873994355,0.0024363416325063805,0.045049317091280815,0.28561360765843524,0.33148530728163167,0.6144330375498834,-3.587052780489267,53.5
,,0.014933186718830883,0.02767978873994355,0.0024363416325063805,0.045049317091280815,0.28987617084578504,0.33148530728163167,0.6144330375498834,-3.587052780489267,53.6
,,0.01467724476654222,0.026596372661732905,0.0022932829496508374,0.04356690037792596,0.29428757156867774,0.3368898094476039,0.6104719966538746,-3.6269804385934523,53.7
,,0.01467724476654222,0.026596372661732905,0.0022932829496508374,0.04356690037792596,0.29869897229157055,0.3368898094476039,0.6104719966538746,-3.6269804385934523,53.8
,,0.01467724476654222,0.026596372661732905,0.0022932829496508374,0.04356690037792596,0.30282831781711794,0.3368898094476039,0.6104719966538746,-3.6269804385934523,53.9
,,0.01467724476654222,0.026596372661732905,0.0022932829496508374,0.04356690037792596,0.3069576633426654,0.3368898094476039,0.6104719966538746,-3.6269804385934523,54.0
,,0.01467724476654222,0.026596372661732905,0.0022932829496508374,0.04356690037792596,0.31108700886821283,0.3368898094476039,0.6104719966538746,-3.6269804385934523,54.1
,,0.01467724476654222,0.026596372661732905,0.0022932829496508374,0.04356690037792596,0.3152163543937602,0.3368898094476039,0.6104719966538746,-3.6269804385934523,54.2
,,0.01467724476654222,0.026596372661732905,0.0022932829496508374,0.04356690037792596,0.31934569991930767,0.3368898094476039,0.6104719966538746,-3.6269804385934523,54.3
,,0.014185950046353828,0.02546034402498667,0.0022950632681851295,0.04194135733952562,0.3249806545174456,0.33823297447231065,0.6070462579186198,-3.6706331735723428,54.4
,,0.014185950046353828,0.02546034402498667,0.0022950632681851295,0.04194135733952562,0.33061560911558363,0.33823297447231065,0.6070462579186198,-3.6706331735723428,54.5
,,0.01393661853829021,0.0244219807318845,0.0022580217014190837,0.04061662097159379,0.3364129800808592,0.34312599632640833,0.6012804646886948,-3.712271702537121,54.6
,,0.01393661853829021,0.0244219807318845,0.0022580217014190837,0.04061662097159379,0.34221035104613473,0.34312599632640833,0.6012804646886948,-3.712271702537121,54.7
,,0.01393661853829021,0.0244219807318845,0.0022580217014190837,0.04061662097159379,0.3480077220114103,0.34312599632640833,0.6012804646886948,-3.712271702537121,54.8
,,0.01393661853829021,0.0244219807318845,0.0022580217014190837,0.04061662097159379,0.351981729178317,0.34312599632640833,0.6012804646886948,-3.712271702537121,54.9
,,0.01393661853829021,0.0244219807318845,0.0022580217014190837,0.04061662097159379,0.3559557363452237,0.34312599632640833,0.6012804646886948,-3.712271702537121,55.0
,,0.01393661853829021,0.0244219807318845,0.0022580217014190837,0.04061662097159379,0.3599297435121304,0.34312599632640833,0.6012804646886948,-3.712271702537121,55.1
,,0.01393661853829021,0.0244219807318845,0.0022580217014190837,0.04061662097159379,0.36390375067903713,0.34312599632640833,0.6012804646886948,-3.712271702537121,55.2
,,0.01427603118416319,0.07116226752190985,0.008150603928485031,0.09358890263455807,0.363419726479853,0.1525397860460831,0.7603707866923198,-2.6427925515725974,55.3
,,0.01427603118416319,0.07116226752190985,0.008150603928485031,0.09358890263455807,0.3629357022806688,0.1525397860460831,0.7603707866923198,-2.6427925515725974,55.4
,,0.013168210095257597,0.022978288046157334,0.002254263081284279,0.03840076122269921,0.36693914171756864,0.34291534011241653,0.5983810558571573,-3.77320550689286,55.5
,,0.013168210095257597,0.022978288046157334,0.002254263081284279,0.03840076122269921,0.37094258115446843,0.34291534011241653,0.5983810558571573,-3.77320550689286,55.6
,,0.013168210095257597,0.022978288046157334,0.002254263081284279,0.03840076122269921,0.3749460205913683,0.34291534011241653,0.5983810558571573,-3.77320550689286,55.7
,,0.013168210095257597,0.022978288046157334,0.002254263081284279,0.03840076122269921,0.3789494600282682,0.34291534011241653,0.5983810558571573,-3.77320550689286,55.8
,,0.013168210095257597,0.022978288046157334,0.002254263081284279,0.03840076122269921,0.3825909735229868,0.34291534011241653,0.5983810558571573,-3.77320550689286,55.9
,,0.013168210095257597,0.022978288046157334,0.002254263081284279,0.03840076122269921,0.3862324870177054,0.34291534011241653,0.5983810558571573,-3.77320550689286,56.0
,,0.013168210095257597,0.022978288046157334,0.002254263081284279,0.03840076122269921,0.38987400051242405,0.34291534011241653,0.5983810558571573,-3.77320550689286,56.1
,,0.012737856484055976,0.022865543710837405,0.0021573503984361523,0.037760750593329534,0.39343731794391823,0.33733059549685246,0.605537319877233,-3.778124142979794,56.2
,,0.012737856484055976,0.022865543710837405,0.0021573503984361523,0.037760750593329534,0.39700063537541236,0.33733059549685246,0.605537319877233,-3.778124142979794,56.3
,,0.012432240408840663,0.022187460663576165,0.0022549499130344575,0.036874650985451285,0.40060311963737183,0.3371486936580293,0.6016995434703943,-3.8082279846573175,56.4
,,0.012432240408840663,0.022187460663576165,0.0022549499130344575,0.036874650985451285,0.40420560389933136,0.3371486936580293,0.6016995434703943,-3.8082279846573175,56.5
,,0.012432240408840663,0.022187460663576165,0.0022549499130344575,0.036874650985451285,0.4078080881612907,0.3371486936580293,0.6016995434703943,-3.8082279846573175,56.6
,,0.012432240408840663,0.022187460663576165,0.0022549499130344575,0.036874650985451285,0.4114105724232502,0.3371486936580293,0.6016995434703943,-3.8082279846573175,56.7
,,0.012432240408840663,0.022187460663576165,0.0022549499130344575,0.036874650985451285,0.4145705579892875,0.3371486936580293,0.6016995434703943,-3.8082279846573175,56.8
,,0.012432240408840663,0.022187460663576165,0.0022549499130344575,0.036874650985451285,0.41773054355532463,0.3371486936580293,0.6016995434703943,-3.8082279846573175,56.9
,,0.012432240408840663,0.022187460663576165,0.0022549499130344575,0.036874650985451285,0.4208905291213619,0.3371486936580293,0.6016995434703943,-3.8082279846573175,57.0
,,0.012062034745551925,0.02213556660975553,0.002110527624637824,0.03630812897994528,0.42405856413538756,0.33221306314666793,0.6096586971469135,-3.8105696152148547,57.1
,,0.012062034745551925,0.02213556660975553,0.002110527624637824,0.03630812897994528,0.42722659914941324,0.33221306314666793,0.6096586971469135,-3.8105696152148547,57.2
,,0.011219931445085705,0.02074103992215763,0.0021256868420666993,0.03408665820931003,0.4303468836878903,0.32915903272739194,0.608479710589308,-3.8756409365429936,57.3
,,0.011219931445085705,0.02074103992215763,0.0021256868420666993,0.03408665820931003,0.4334671682263675,0.32915903272739194,0.608479710589308,-3.8756409365429936,57.4
,,0.011219931445085705,0.02074103992215763,0.0021256868420666993,0.03408665820931003,0.4365874527648447,0.32915903272739194,0.608479710589308,-3.8756409365429936,57.5
,,0.011219931445085705,0.02074103992215763,0.0021256868420666993,0.03408665820931003,0.43970773730332174,0.32915903272739194,0.608479710589308,-3.8756409365429936,57.6
,,0.011219931445085705,0.02074103992215763,0.0021256868420666993,0.03408665820931003,0.44224030979819196,0.32915903272739194,0.608479710589308,-3.8756409365429936,57.7
,,0.011219931445085705,0.02074103992215763,0.0021256868420666993,0.03408665820931003,0.44477288229306217,0.32915903272739194,0.608479710589308,-3.8756409365429936,57.8
,,0.011219931445085705,0.02074103992215763,0.0021256868420666993,0.03408665820931003,0.4473054547879324,0.32915903272739194,0.608479710589308,-3.8756409365429936,57.9
,,0.011219931445085705,0.02074103992215763,0.0021256868420666993,0.03408665820931003,0.4498380272828026,0.32915903272739194,0.608479710589308,-3.8756409365429936,58.0
,,0.010615211270902883,0.020063630140415928,0.0018904019287655897,0.0325692433400844,0.4507813519627618,0.32592747581084497,0.616029974381466,-3.9088465486919692,58.1
,,0.00980795636410862,0.018948752027179654,0.001891996905959665,0.030648705297247936,0.4515675048111662,0.3200120941157444,0.6182561985377286,-3.966017205707815,58.2
,,0.00980795636410862,0.018948752027179654,0.001891996905959665,0.030648705297247936,0.45233537503518917,0.3200120941157444,0.6182561985377286,-3.966017205707815,58.3
,,0.00980795636410862,0.018948752027179654,0.001891996905959665,0.030648705297247936,0.45308559307015406,0.3200120941157444,0.6182561985377286,-3.966017205707815,58.4
,,0.00980795636410862,0.018948752027179654,0.001891996905959665,0.030648705297247936,0.4538187606952334,0.3200120941157444,0.6182561985377286,-3.966017205707815,58.5
,,0.00980795636410862,0.018948752027179654,0.001891996905959665,0.030648705297247936,0.45453545264334466,0.3200120941157444,0.6182561985377286,-3.966017205707815,58.6
,,0.00980795636410862,0.018948752027179654,0.001891996905959665,0.030648705297247936,0.45617787934215126,0.3200120941157444,0.6182561985377286,-3.966017205707815,58.7
,,0.00980795636410862,0.018948752027179654,0.001891996905959665,0.030648705297247936,0.45782030604095786,0.3200120941157444,0.6182561985377286,-3.966017205707815,58.8
,,0.00980795636410862,0.018948752027179654,0.001891996905959665,0.030648705297247936,0.45946273273976457,0.3200120941157444,0.6182561985377286,-3.966017205707815,58.9
,,,0.016874980938826237,0.003173699133555553,0.02004868007238179,0.4606044072222689,,0.8417003452547728,-4.08192317177522,59.0
,,0.008664965975068236,0.017303969415560037,0.0016384695776504147,0.027607404968278685,0.4622152573570814,0.3138638341787071,0.626787249125463,-4.056819357810979,59.1
,,0.008664965975068236,0.017303969415560037,0.0016384695776504147,0.027607404968278685,0.4638261074918939,0.3138638341787071,0.626787249125463,-4.056819357810979,59.2
,,0.008664965975068236,0.017303969415560037,0.0016384695776504147,0.027607404968278685,0.4654369576267064,0.3138638341787071,0.626787249125463,-4.056819357810979,59.3
,,0.008664965975068236,0.017303969415560037,0.0016384695776504147,0.027607404968278685,0.46704780776151883,0.3138638341787071,0.626787249125463,-4.056819357810979,59.4
,,0.008664965975068236,0.017303969415560037,0.0016384695776504147,0.027607404968278685,0.4686586578963313,0.3138638341787071,0.626787249125463,-4.056819357810979,59.5
,,0.008664965975068236,0.017303969415560037,0.0016384695776504147,0.027607404968278685,0.4702695080311438,0.3138638341787071,0.626787249125463,-4.056819357810979,59.6
,,0.008664965975068236,0.017303969415560037,0.0016384695776504147,0.027607404968278685,0.47116807942305916,0.3138638341787071,0.626787249125463,-4.056819357810979,59.7
,,0.008664965975068236,0.017303969415560037,0.0016384695776504147,0.027607404968278685,0.47206665081497456,0.3138638341787071,0.626787249125463,-4.056819357810979,59.8
,,0.008664965975068236,0.017303969415560037,0.0016384695776504147,0.027607404968278685,0.47296522220688986,0.3138638341787071,0.626787249125463,-4.056819357810979,59.9
,,0.007161216795302088,0.014359720825143647,0.0012783738004033534,0.022799311420849087,0.47391891793393665,0.31409794195597646,0.629831338327711,-4.243328156697026,60.0
,,0.007161216795302088,0.014359720825143647,0.0012783738004033534,0.022799311420849087,0.47487261366098343,0.31409794195597646,0.629831338327711,-4.243328156697026,60.1
,,0.007161216795302088,0.014359720825143647,0.0012783738004033534,0.022799311420849087,0.4758263093880302,0.31409794195597646,0.629831338327711,-4.243328156697026,60.2
,,0.007161216795302088,0.014359720825143647,0.0012783738004033534,0.022799311420849087,0.47678000511507695,0.31409794195597646,0.629831338327711,-4.243328156697026,60.3
,,0.007161216795302088,0.014359720825143647,0.0012783738004033534,0.022799311420849087,0.4777337008421237,0.31409794195597646,0.629831338327711,-4.243328156697026,60.4
,,0.007161216795302088,0.014359720825143647,0.0012783738004033534,0.022799311420849087,0.4786873965691705,0.31409794195597646,0.629831338327711,-4.243328156697026,60.5
,,0.007161216795302088,0.014359720825143647,0.0012783738004033534,0.022799311420849087,0.47902799275027436,0.31409794195597646,0.629831338327711,-4.243328156697026,60.6
,,0.007161216795302088,0.014359720825143647,0.0012783738004033534,0.022799311420849087,0.4793685889313782,0.31409794195597646,0.629831338327711,-4.243328156697026,60.7
,,0.007161216795302088,0.014359720825143647,0.0012783738004033534,0.022799311420849087,0.479709185112482,0.31409794195597646,0.629831338327711,-4.243328156697026,60.8
,,,0.009191606037911368,0.0017566874208803998,0.010948293458791768,0.4798121537960362,,0.839546918659754,-4.689464598589222,60.9
,,,0.009191606037911368,0.0017566874208803998,0.010948293458791768,0.47991751710013814,,0.839546918659754,-4.689464598589222,61.0
,,,0.009191606037911368,0.0017566874208803998,0.010948293458791768,0.4800253595408072,,0.839546918659754,-4.689464598589222,61.1
,,,0.009191606037911368,0.0017566874208803998,0.010948293458791768,0.480135769658635,,0.839546918659754,-4.689464598589222,61.2
,,,0.009191606037911368,0.0017566874208803998,0.010948293458791768,0.48024884026122977,,0.839546918659754,-4.689464598589222,61.3
,,,0.009191606037911368,0.0017566874208803998,0.010948293458791768,0.4803646686834001,,0.839546918659754,-4.689464598589222,61.4
,,,0.009191606037911368,0.0017566874208803998,0.010948293458791768,0.4853041740965686,,0.839546918659754,-4.689464598589222,61.5
,,,0.009191606037911368,0.0017566874208803998,0.010948293458791768,0.49036716714506634,,0.839546918659754,-4.689464598589222,61.6
,,,0.009191606037911368,0.0017566874208803998,0.010948293458791768,0.49555833723276654,,0.839546918659754,-4.689464598589222,61.7
,,0.006192529269582647,0.012048207352852908,0.0009486821524008302,0.019189418774836386,0.500869096320928,0.32270541084355725,0.627856814957421,-4.418839397510539,61.8
,,0.00801933306640929,0.008609760966020464,0.0014998664735686972,0.01812896050599845,0.5114639581925661,0.44234930423925184,0.4749175201287297,-4.7548587232948405,61.9
,,0.00801933306640929,0.008609760966020464,0.0014998664735686972,0.01812896050599845,0.5220588200642039,0.44234930423925184,0.4749175201287297,-4.7548587232948405,62.0
,,0.00801933306640929,0.008609760966020464,0.0014998664735686972,0.01812896050599845,0.5326536819358418,0.44234930423925184,0.4749175201287297,-4.7548587232948405,62.1
,,0.00801933306640929,0.008609760966020464,0.0014998664735686972,0.01812896050599845,0.5432485438074799,0.44234930423925184,0.4749175201287297,-4.7548587232948405,62.2
,,0.00801933306640929,0.008609760966020464,0.0014998664735686972,0.01812896050599845,0.5481007298499818,0.44234930423925184,0.4749175201287297,-4.7548587232948405,62.3
,,0.00801933306640929,0.008609760966020464,0.0014998664735686972,0.01812896050599845,0.5585631559482243,0.44234930423925184,0.4749175201287297,-4.7548587232948405,62.4
,,0.00801933306640929,0.008609760966020464,0.0014998664735686972,0.01812896050599845,0.5634622255706632,0.44234930423925184,0.4749175201287297,-4.7548587232948405,62.5
,,0.00801933306640929,0.008609760966020464,0.0014998664735686972,0.01812896050599845,0.5683612951931021,0.44234930423925184,0.4749175201287297,-4.7548587232948405,62.6
,,0.008235226510397736,0.008493592073147574,0.0012759842488925368,0.018004802832437845,0.5735829170253912,0.45739054112611405,0.47174035462611863,-4.76844327353892,62.7
,,0.007105263488987718,0.01101466327181611,0.0009283941208438685,0.019048320881647696,0.5747481891897299,0.37301258904312967,0.5782485154598747,-4.508527869161864,62.8
,,0.007105263488987718,0.01101466327181611,0.0009283941208438685,0.019048320881647696,0.5759134613540686,0.37301258904312967,0.5782485154598747,-4.508527869161864,62.9
,,0.007105263488987718,0.01101466327181611,0.0009283941208438685,0.019048320881647696,0.5770787335184073,0.37301258904312967,0.5782485154598747,-4.508527869161864,63.0
,,0.007105263488987718,0.01101466327181611,0.0009283941208438685,0.019048320881647696,0.5782440056827461,0.37301258904312967,0.5782485154598747,-4.508527869161864,63.1
,,0.007105263488987718,0.01101466327181611,0.0009283941208438685,0.019048320881647696,0.5794092778470847,0.37301258904312967,0.5782485154598747,-4.508527869161864,63.2
,,0.007105263488987718,0.01101466327181611,0.0009283941208438685,0.019048320881647696,0.5805745500114236,0.37301258904312967,0.5782485154598747,-4.508527869161864,63.3
,,0.007105263488987718,0.01101466327181611,0.0009283941208438685,0.019048320881647696,0.5816732361535555,0.37301258904312967,0.5782485154598747,-4.508527869161864,63.4
,,0.007105263488987718,0.01101466327181611,0.0009283941208438685,0.019048320881647696,0.5827719222956874,0.37301258904312967,0.5782485154598747,-4.508527869161864,63.5
,,0.007323923169320006,0.01122812202730766,0.0008595338681090447,0.01941157906473671,0.5837922358190843,0.3772966199655919,0.5784239391273835,-4.489333752416544,63.6
,,0.007323923169320006,0.01122812202730766,0.0008595338681090447,0.01941157906473671,0.5848125493424812,0.3772966199655919,0.5784239391273835,-4.489333752416544,63.7
,,0.008179809570318311,0.011330016044036027,0.0010295458716612113,0.02053937148601555,0.5867038044557036,0.3982502373983362,0.5516242817727012,-4.480299787876497,63.8
,,0.008179809570318311,0.011330016044036027,0.0010295458716612113,0.02053937148601555,0.588595059568926,0.3982502373983362,0.5516242817727012,-4.480299787876497,63.9
,,0.008179809570318311,0.011330016044036027,0.0010295458716612113,0.02053937148601555,0.5904863146821483,0.3982502373983362,0.5516242817727012,-4.480299787876497,64.0
,,0.008179809570318311,0.011330016044036027,0.0010295458716612113,0.02053937148601555,0.5923775697953706,0.3982502373983362,0.5516242817727012,-4.480299787876497,64.1
,,0.008179809570318311,0.011330016044036027,0.0010295458716612113,0.02053937148601555,0.594268824908593,0.3982502373983362,0.5516242817727012,-4.480299787876497,64.2
,,0.008179809570318311,0.011330016044036027,0.0010295458716612113,0.02053937148601555,0.6007856605533288,0.3982502373983362,0.5516242817727012,-4.480299787876497,64.3
,,0.008820644727822886,0.012042623697401144,0.0010029945659209443,0.021866262991144976,0.6074336568711293,0.4033905899419082,0.5507399093424404,-4.419302947774961,64.4
,,0.008820644727822886,0.012042623697401144,0.0010029945659209443,0.021866262991144976,0.6094259096664925,0.4033905899419082,0.5507399093424404,-4.419302947774961,64.5
,,0.008820644727822886,0.012042623697401144,0.0010029945659209443,0.021866262991144976,0.6114181624618558,0.4033905899419082,0.5507399093424404,-4.419302947774961,64.6
,,0.008820644727822886,0.012042623697401144,0.0010029945659209443,0.021866262991144976,0.6134104152572191,0.4033905899419082,0.5507399093424404,-4.419302947774961,64.7
,,0.009754636294186249,0.012651423491572316,0.0012185474539611887,0.023624607239719753,0.615884901231294,0.4129015223493706,0.5355188919416886,-4.369985541161469,64.8
,,0.009754636294186249,0.012651423491572316,0.0012185474539611887,0.023624607239719753,0.618359387205369,0.4129015223493706,0.5355188919416886,-4.369985541161469,64.9
,,0.009754636294186249,0.012651423491572316,0.0012185474539611887,0.023624607239719753,0.6208338731794439,0.4129015223493706,0.5355188919416886,-4.369985541161469,65.0
,,0.009754636294186249,0.012651423491572316,0.0012185474539611887,0.023624607239719753,0.6233083591535188,0.4129015223493706,0.5355188919416886,-4.369985541161469,65.1
,,0.009754636294186249,0.012651423491572316,0.0012185474539611887,0.023624607239719753,0.6259827873478286,0.4129015223493706,0.5355188919416886,-4.369985541161469,65.2
,,0.009754636294186249,0.012651423491572316,0.0012185474539611887,0.023624607239719753,0.6286572155421385,0.4129015223493706,0.5355188919416886,-4.369985541161469,65.3
,,0.01059658217790414,0.01369932438636881,0.0012321804092606501,0.0255280869735336,0.6313220152368971,0.4150950358673649,0.5366373281543451,-4.290408762227666,65.4
,,0.01059658217790414,0.01369932438636881,0.0012321804092606501,0.0255280869735336,0.6339868149316555,0.4150950358673649,0.5366373281543451,-4.290408762227666,65.5
,,0.012921518077016117,0.012308058890073387,0.001502242547880837,0.02673181951497034,0.6401057493404892,0.48337592844287364,0.46042727780578624,-4.397501036834943,65.6
,,0.011448740884685844,0.014835842054308476,0.0014650015199701729,0.027749584458964492,0.6427478417389374,0.4125734171484984,0.5346329447292233,-4.210709265521703,65.7
,,0.011448740884685844,0.014835842054308476,0.0014650015199701729,0.027749584458964492,0.6453899341373854,0.4125734171484984,0.5346329447292233,-4.210709265521703,65.8
,,0.011448740884685844,0.014835842054308476,0.0014650015199701729,0.027749584458964492,0.6480320265358336,0.4125734171484984,0.5346329447292233,-4.210709265521703,65.9
,,0.011448740884685844,0.014835842054308476,0.0014650015199701729,0.027749584458964492,0.6506741189342816,0.4125734171484984,0.5346329447292233,-4.210709265521703,66.0
,,0.011448740884685844,0.014835842054308476,0.0014650015199701729,0.027749584458964492,0.6535088470200794,0.4125734171484984,0.5346329447292233,-4.210709265521703,66.1
,,0.011448740884685844,0.014835842054308476,0.0014650015199701729,0.027749584458964492,0.656343575105877,0.4125734171484984,0.5346329447292233,-4.210709265521703,66.2
,,0.012256536660624175,0.016102269726904008,0.0015087821470687061,0.029867588534596888,0.6590962636641301,0.4103624451109239,0.5391218547239617,-4.128795040101683,66.3
,,0.012256536660624175,0.016102269726904008,0.0015087821470687061,0.029867588534596888,0.6618489522223829,0.4103624451109239,0.5391218547239617,-4.128795040101683,66.4
,,0.012256536660624175,0.016102269726904008,0.0015087821470687061,0.029867588534596888,0.6646016407806359,0.4103624451109239,0.5391218547239617,-4.128795040101683,66.5
,,0.012256536660624175,0.016102269726904008,0.0015087821470687061,0.029867588534596888,0.6673543293388888,0.4103624451109239,0.5391218547239617,-4.128795040101683,66.6
,,0.012777984547241588,0.017596932139987198,0.0017147857759248226,0.03208970246315361,0.6696692699280857,0.3981957938660748,0.5483669460691492,-4.040030702359824,66.7
,,0.012777984547241588,0.017596932139987198,0.0017147857759248226,0.03208970246315361,0.6719842105172825,0.3981957938660748,0.5483669460691492,-4.040030702359824,66.8
,,0.012777984547241588,0.017596932139987198,0.0017147857759248226,0.03208970246315361,0.6742991511064792,0.3981957938660748,0.5483669460691492,-4.040030702359824,66.9
,,0.012777984547241588,0.017596932139987198,0.0017147857759248226,0.03208970246315361,0.676614091695676,0.3981957938660748,0.5483669460691492,-4.040030702359824,67.0
,,0.012777984547241588,0.017596932139987198,0.0017147857759248226,0.03208970246315361,0.6790774807453401,0.3981957938660748,0.5483669460691492,-4.040030702359824,67.1
,,0.012811908899855895,0.014063808701869527,0.0015116830150010989,0.028387400616726517,0.6839947301714885,0.45132377820837954,0.49542432192903224,-4.264150540103558,67.2
,,0.012811908899855895,0.014063808701869527,0.0015116830150010989,0.028387400616726517,0.6889119795976371,0.45132377820837954,0.49542432192903224,-4.264150540103558,67.3
,,0.012811908899855895,0.014063808701869527,0.0015116830150010989,0.028387400616726517,0.6938292290237855,0.45132377820837954,0.49542432192903224,-4.264150540103558,67.4
,,0.012811908899855895,0.014063808701869527,0.0015116830150010989,0.028387400616726517,0.698746478449934,0.45132377820837954,0.49542432192903224,-4.264150540103558,67.5
,,0.013465362604231814,0.020596161801285172,0.0019145246482476428,0.03597604905376463,0.700448676541277,0.3742868646890163,0.572496489831474,-3.8826505408723526,67.6
,,0.013465362604231814,0.020596161801285172,0.0019145246482476428,0.03597604905376463,0.7021508746326199,0.3742868646890163,0.572496489831474,-3.8826505408723526,67.7
,,0.013465362604231814,0.020596161801285172,0.0019145246482476428,0.03597604905376463,0.7038530727239628,0.3742868646890163,0.572496489831474,-3.8826505408723526,67.8
,,0.013465362604231814,0.020596161801285172,0.0019145246482476428,0.03597604905376463,0.7055552708153058,0.3742868646890163,0.572496489831474,-3.8826505408723526,67.9
,,0.013717878776146216,0.021997162055243512,0.0019675803548846725,0.0376826211862744,0.7045437290748034,0.3640372761845677,0.5837481938028187,-3.8168418314336443,68.0
,,0.013717878776146216,0.021997162055243512,0.0019675803548846725,0.0376826211862744,0.7060606451203805,0.3640372761845677,0.5837481938028187,-3.8168418314336443,68.1
,,0.013717878776146216,0.021997162055243512,0.0019675803548846725,0.0376826211862744,0.7075775611659575,0.3640372761845677,0.5837481938028187,-3.8168418314336443,68.2
,,0.013717878776146216,0.021997162055243512,0.0019675803548846725,0.0376826211862744,0.7090944772115345,0.3640372761845677,0.5837481938028187,-3.8168418314336443,68.3
,,0.013717878776146216,0.021997162055243512,0.0019675803548846725,0.0376826211862744,0.7106113932571115,0.3640372761845677,0.5837481938028187,-3.8168418314336443,68.4
,,0.012846262200700304,0.02257576690458216,0.0019442242999006785,0.03736625340518314,0.7114543394132216,0.3437931563917076,0.6041752877865629,-3.7908782088460407,68.5
,,0.012846262200700304,0.02257576690458216,0.0019442242999006785,0.03736625340518314,0.7122972855693315,0.3437931563917076,0.6041752877865629,-3.7908782088460407,68.6
,,0.012846262200700304,0.02257576690458216,0.0019442242999006785,0.03736625340518314,0.7131402317254413,0.3437931563917076,0.6041752877865629,-3.7908782088460407,68.7
,,0.012846262200700304,0.02257576690458216,0.0019442242999006785,0.03736625340518314,0.7139831778815512,0.3437931563917076,0.6041752877865629,-3.7908782088460407,68.8
,,0.012428904193396956,0.02326717737406868,0.0019127676810409837,0.03760884924850662,0.714395914603105,0.33047818377188143,0.6186623052549947,-3.76071160794795,68.9
,,0.012428904193396956,0.02326717737406868,0.0019127676810409837,0.03760884924850662,0.7148339416632037,0.33047818377188143,0.6186623052549947,-3.76071160794795,69.0
,,0.012428904193396956,0.02326717737406868,0.0019127676810409837,0.03760884924850662,0.7152719687233023,0.33047818377188143,0.6186623052549947,-3.76071160794795,69.1
,,0.012428904193396956,0.02326717737406868,0.0019127676810409837,0.03760884924850662,0.7157099957834011,0.33047818377188143,0.6186623052549947,-3.76071160794795,69.2
,,0.012428904193396956,0.02326717737406868,0.0019127676810409837,0.03760884924850662,0.7161480228434998,0.33047818377188143,0.6186623052549947,-3.76071160794795,69.3
,,0.012428904193396956,0.02326717737406868,0.0019127676810409837,0.03760884924850662,0.7165860499035984,0.33047818377188143,0.6186623052549947,-3.76071160794795,69.4
,,0.011219590177259259,0.022957699337657147,0.0017897005101433256,0.035966990025059736,0.7164626598541101,0.3119413153405968,0.6382991549101423,-3.7741019156151467,69.5
,,0.011219590177259259,0.022957699337657147,0.0017897005101433256,0.035966990025059736,0.7163392698046217,0.3119413153405968,0.6382991549101423,-3.7741019156151467,69.6
,,0.011219590177259259,0.022957699337657147,0.0017897005101433256,0.035966990025059736,0.7162158797551335,0.3119413153405968,0.6382991549101423,-3.7741019156151467,69.7
,,0.013431745492357159,0.019736067921603994,0.001852255139582334,0.03502006855354349,0.7184611488217751,0.3835442375511305,0.5635645141993021,-3.9253074582528966,69.8
,,0.013431745492357159,0.019736067921603994,0.001852255139582334,0.03502006855354349,0.7179990429473478,0.3835442375511305,0.5635645141993021,-3.9253074582528966,69.9
,,0.013431745492357159,0.019736067921603994,0.001852255139582334,0.03502006855354349,0.717548072154232,0.3835442375511305,0.5635645141993021,-3.9253074582528966,70.0
,,0.013431745492357159,0.019736067921603994,0.001852255139582334,0.03502006855354349,0.7171078387609521,0.3835442375511305,0.5635645141993021,-3.9253074582528966,70.1
,,0.013431745492357159,0.019736067921603994,0.001852255139582334,0.03502006855354349,0.7166779638004555,0.3835442375511305,0.5635645141993021,-3.9253074582528966,70.2
,,0.013431745492357159,0.019736067921603994,0.001852255139582334,0.03502006855354349,0.7162580859320632,0.3835442375511305,0.5635645141993021,-3.9253074582528966,70.3
,,0.00925333372327726,0.021986157984488573,0.00152440669475152,0.03276389840251735,0.712862830725199,0.28242468614682,0.6710482896259777,-3.817342206165456,70.4
,,0.00925333372327726,0.021986157984488573,0.00152440669475152,0.03276389840251735,0.7095447404093997,0.28242468614682,0.6710482896259777,-3.817342206165456,70.5
,,0.00925333372327726,0.021986157984488573,0.00152440669475152,0.03276389840251735,0.7063012139209219,0.28242468614682,0.6710482896259777,-3.817342206165456,70.6
,,0.011805617306811867,0.01854455599655459,0.001611876706823845,0.031962050010190306,0.7055268476352529,0.36936358284427745,0.5802054621228024,-3.987579010276261,70.7
,,0.011805617306811867,0.01854455599655459,0.001611876706823845,0.031962050010190306,0.7068893914230051,0.36936358284427745,0.5802054621228024,-3.987579010276261,70.8
,,0.011805617306811867,0.01854455599655459,0.001611876706823845,0.031962050010190306,0.7036136672119281,0.36936358284427745,0.5802054621228024,-3.987579010276261,70.9
,,0.011805617306811867,0.01854455599655459,0.001611876706823845,0.031962050010190306,0.7003379430008511,0.36936358284427745,0.5802054621228024,-3.987579010276261,71.0
,,0.011805617306811867,0.01854455599655459,0.001611876706823845,0.031962050010190306,0.697062218789774,0.36936358284427745,0.5802054621228024,-3.987579010276261,71.1
,,0.011805617306811867,0.01854455599655459,0.001611876706823845,0.031962050010190306,0.6937864945786969,0.36936358284427745,0.5802054621228024,-3.987579010276261,71.2
,,0.007679968412571726,0.020521644433934467,0.0012789896724514343,0.02948060251895763,0.6875955395632466,0.2605092079659189,0.6961066830549998,-3.8862751237844866,71.3
,,0.007679968412571726,0.020521644433934467,0.0012789896724514343,0.02948060251895763,0.6814045845477963,0.2605092079659189,0.6961066830549998,-3.8862751237844866,71.4
,,0.007679968412571726,0.020521644433934467,0.0012789896724514343,0.02948060251895763,0.6752136295323459,0.2605092079659189,0.6961066830549998,-3.8862751237844866,71.5
,,0.00691312869779971,0.01988103723025242,0.0011140890657587315,0.02790825499381086,0.6687280886729015,0.24770909895057272,0.7123712046726456,-3.917988904554773,71.6
,,0.00691312869779971,0.01988103723025242,0.0011140890657587315,0.02790825499381086,0.6618185734552559,0.24770909895057272,0.7123712046726456,-3.917988904554773,71.7
,,0.00691312869779971,0.01988103723025242,0.0011140890657587315,0.02790825499381086,0.6585147023868998,0.24770909895057272,0.7123712046726456,-3.917988904554773,71.8
,,0.00691312869779971,0.01988103723025242,0.0011140890657587315,0.02790825499381086,0.6552108313185435,0.24770909895057272,0.7123712046726456,-3.917988904554773,71.9
,,0.00691312869779971,0.01988103723025242,0.0011140890657587315,0.02790825499381086,0.6519069602501875,0.24770909895057272,0.7123712046726456,-3.917988904554773,72.0
,,0.00691312869779971,0.01988103723025242,0.0011140890657587315,0.02790825499381086,0.6486030891818313,0.24770909895057272,0.7123712046726456,-3.917988904554773,72.1
,,0.006519098135227788,0.018848383817909233,0.0010763997961116452,0.026443881749248666,0.6452786142761424,0.24652576338997625,0.7127691765012812,-3.9713281078668827,72.2
,,0.006519098135227788,0.018848383817909233,0.0010763997961116452,0.026443881749248666,0.6419541393704534,0.24652576338997625,0.7127691765012812,-3.9713281078668827,72.3
,,0.0059105904864894575,0.018122796222317394,0.000913814178251407,0.024947200887058256,0.6384104510686968,0.236923994529409,0.7264460772318098,-4.010584673367999,72.4
,,0.0059105904864894575,0.018122796222317394,0.000913814178251407,0.024947200887058256,0.63486676276694,0.236923994529409,0.7264460772318098,-4.010584673367999,72.5
,,0.0059105904864894575,0.018122796222317394,0.000913814178251407,0.024947200887058256,0.6312429550321431,0.236923994529409,0.7264460772318098,-4.010584673367999,72.6
,,0.0059105904864894575,0.018122796222317394,0.000913814178251407,0.024947200887058256,0.6276191472973464,0.236923994529409,0.7264460772318098,-4.010584673367999,72.7
,,0.0059105904864894575,0.018122796222317394,0.000913814178251407,0.024947200887058256,0.6232211692604822,0.236923994529409,0.7264460772318098,-4.010584673367999,72.8
